   0.0000000e+00   4.8900000e+02   2.3517726e-30   0.0000000e+00
   1.0000219e-02   4.8900000e+02   3.1694460e-30   0.0000000e+00
   2.0000438e-02   4.8900000e+02   4.2625826e-30   0.0000000e+00
   3.0000657e-02   4.9000000e+02   5.7210376e-30   0.0000000e+00
   4.0000877e-02   4.9000000e+02   7.6630253e-30   0.0000000e+00
   5.0001096e-02   4.9100000e+02   1.0243772e-29   0.0000000e+00
   6.0001315e-02   4.9100000e+02   1.3666719e-29   0.0000000e+00
   7.0001534e-02   4.9100000e+02   1.8198001e-29   0.0000000e+00
   8.0001753e-02   4.9100000e+02   2.4185123e-29   0.0000000e+00
   9.0001972e-02   4.9100000e+02   3.2081015e-29   0.0000000e+00
   1.0000219e-01   4.9100000e+02   4.2474948e-29   0.0000000e+00
   1.1000241e-01   4.9200000e+02   5.6132218e-29   0.0000000e+00
   1.2000263e-01   4.9200000e+02   7.4044974e-29   0.0000000e+00
   1.3000285e-01   4.9200000e+02   9.7497231e-29   0.0000000e+00
   1.4000307e-01   4.9200000e+02   1.2814788e-28   0.0000000e+00
   1.5000329e-01   4.9200000e+02   1.6813649e-28   0.0000000e+00
   1.6000351e-01   4.9200000e+02   2.2021797e-28   0.0000000e+00
   1.7000373e-01   4.9300000e+02   2.8793365e-28   0.0000000e+00
   1.8000394e-01   4.9200000e+02   3.7582829e-28   0.0000000e+00
   1.9000416e-01   4.9300000e+02   4.8972501e-28   0.0000000e+00
   2.0000438e-01   4.9300000e+02   6.3707285e-28   0.0000000e+00
   2.1000460e-01   4.9300000e+02   8.2738566e-28   0.0000000e+00
   2.2000482e-01   4.9300000e+02   1.0727954e-27   0.0000000e+00
   2.3000504e-01   4.9400000e+02   1.3887488e-27   0.0000000e+00
   2.4000526e-01   4.9400000e+02   1.7948826e-27   0.0000000e+00
   2.5000548e-01   4.9400000e+02   2.3161225e-27   0.0000000e+00
   2.6000570e-01   4.9400000e+02   2.9840601e-27   0.0000000e+00
   2.7000592e-01   4.9500000e+02   3.8386763e-27   0.0000000e+00
   2.8000614e-01   4.9500000e+02   4.9304950e-27   0.0000000e+00
   2.9000636e-01   4.9600000e+02   6.3232702e-27   0.0000000e+00
   3.0000657e-01   4.9600000e+02   8.0973353e-27   0.0000000e+00
   3.1000679e-01   4.9700000e+02   1.0353771e-26   0.0000000e+00
   3.2000701e-01   4.9700000e+02   1.3219582e-26   0.0000000e+00
   3.3000723e-01   4.9700000e+02   1.6854131e-26   0.0000000e+00
   3.4000745e-01   4.9700000e+02   2.1457098e-26   0.0000000e+00
   3.5000767e-01   4.9800000e+02   2.7278345e-26   0.0000000e+00
   3.6000789e-01   4.9800000e+02   3.4630106e-26   0.0000000e+00
   3.7000811e-01   4.9900000e+02   4.3902034e-26   0.0000000e+00
   3.8000833e-01   4.9900000e+02   5.5579755e-26   0.0000000e+00
   3.9000855e-01   4.9900000e+02   7.0267715e-26   0.0000000e+00
   4.0000877e-01   4.9900000e+02   8.8717280e-26   0.0000000e+00
   4.1000899e-01   5.0000000e+02   1.1186125e-25   0.0000000e+00
   4.2000920e-01   5.0000000e+02   1.4085619e-25   0.0000000e+00
   4.3000942e-01   5.0100000e+02   1.7713434e-25   0.0000000e+00
   4.4000964e-01   5.0200000e+02   2.2246706e-25   0.0000000e+00
   4.5000986e-01   5.0200000e+02   2.7904251e-25   0.0000000e+00
   4.6001008e-01   5.0200000e+02   3.4956033e-25   0.0000000e+00
   4.7001030e-01   5.0300000e+02   4.3734725e-25   0.0000000e+00
   4.8001052e-01   5.0300000e+02   5.4649784e-25   0.0000000e+00
   4.9001074e-01   5.0400000e+02   6.8204571e-25   0.0000000e+00
   5.0001096e-01   5.0400000e+02   8.5017169e-25   0.0000000e+00
   5.1001118e-01   5.0400000e+02   1.0584564e-24   0.0000000e+00
   5.2001140e-01   5.0400000e+02   1.3161867e-24   0.0000000e+00
   5.3001162e-01   5.0400000e+02   1.6347266e-24   0.0000000e+00
   5.4001183e-01   5.0400000e+02   2.0279660e-24   0.0000000e+00
   5.5001205e-01   5.0400000e+02   2.5128637e-24   0.0000000e+00
   5.6001227e-01   5.0400000e+02   3.1101020e-24   0.0000000e+00
   5.7001249e-01   5.0400000e+02   3.8448765e-24   0.0000000e+00
   5.8001271e-01   5.0400000e+02   4.7478479e-24   0.0000000e+00
   5.9001293e-01   5.0500000e+02   5.8562873e-24   0.0000000e+00
   6.0001315e-01   5.0500000e+02   7.2154522e-24   0.0000000e+00
   6.1001337e-01   5.0600000e+02   8.8802409e-24   0.0000000e+00
   6.2001359e-01   5.0600000e+02   1.0917175e-23   0.0000000e+00
   6.3001381e-01   5.0700000e+02   1.3406777e-23   0.0000000e+00
   6.4001403e-01   5.0700000e+02   1.6446419e-23   0.0000000e+00
   6.5001425e-01   5.0700000e+02   2.0153722e-23   0.0000000e+00
   6.6001446e-01   5.0800000e+02   2.4670631e-23   0.0000000e+00
   6.7001468e-01   5.0800000e+02   3.0168267e-23   0.0000000e+00
   6.8001490e-01   5.0800000e+02   3.6852722e-23   0.0000000e+00
   6.9001512e-01   5.0800000e+02   4.4971960e-23   0.0000000e+00
   7.0001534e-01   5.0800000e+02   5.4824033e-23   0.0000000e+00
   7.1001556e-01   5.0900000e+02   6.6766853e-23   0.0000000e+00
   7.2001578e-01   5.0900000e+02   8.1229797e-23   0.0000000e+00
   7.3001600e-01   5.0900000e+02   9.8727490e-23   0.0000000e+00
   7.4001622e-01   5.1000000e+02   1.1987615e-22   0.0000000e+00
   7.5001644e-01   5.1000000e+02   1.4541293e-22   0.0000000e+00
   7.6001666e-01   5.1000000e+02   1.7621890e-22   0.0000000e+00
   7.7001688e-01   5.1000000e+02   2.1334606e-22   0.0000000e+00
   7.8001709e-01   5.1000000e+02   2.5804948e-22   0.0000000e+00
   7.9001731e-01   5.1000000e+02   3.1182505e-22   0.0000000e+00
   8.0001753e-01   5.1000000e+02   3.7645415e-22   0.0000000e+00
   8.1001775e-01   5.1000000e+02   4.5405620e-22   0.0000000e+00
   8.2001797e-01   5.1000000e+02   5.4715060e-22   0.0000000e+00
   8.3001819e-01   5.1000000e+02   6.5872960e-22   0.0000000e+00
   8.4001841e-01   5.0900000e+02   7.9234395e-22   0.0000000e+00
   8.5001863e-01   5.0900000e+02   9.5220350e-22   0.0000000e+00
   8.6001885e-01   5.0900000e+02   1.1432953e-21   0.0000000e+00
   8.7001907e-01   5.0900000e+02   1.3715221e-21   0.0000000e+00
   8.8001929e-01   5.0900000e+02   1.6438645e-21   0.0000000e+00
   8.9001951e-01   5.0900000e+02   1.9685710e-21   0.0000000e+00
   9.0001972e-01   5.0800000e+02   2.3553802e-21   0.0000000e+00
   9.1001994e-01   5.0800000e+02   2.8157804e-21   0.0000000e+00
   9.2002016e-01   5.0800000e+02   3.3633131e-21   0.0000000e+00
   9.3002038e-01   5.0800000e+02   4.0139271e-21   0.0000000e+00
   9.4002060e-01   5.0800000e+02   4.7863910e-21   0.0000000e+00
   9.5002082e-01   5.0800000e+02   5.7027747e-21   0.0000000e+00
   9.6002104e-01   5.0700000e+02   6.7890090e-21   0.0000000e+00
   9.7002126e-01   5.0800000e+02   8.0755377e-21   0.0000000e+00
   9.8002148e-01   5.0700000e+02   9.5980749e-21   0.0000000e+00
   9.9002170e-01   5.0700000e+02   1.1398485e-20   0.0000000e+00
   1.0000219e+00   5.0700000e+02   1.3525804e-20   0.0000000e+00
   1.0100221e+00   5.0700000e+02   1.6037426e-20   0.0000000e+00
   1.0200224e+00   5.0700000e+02   1.9000474e-20   0.0000000e+00
   1.0300226e+00   5.0700000e+02   2.2493393e-20   0.0000000e+00
   1.0400228e+00   5.0600000e+02   2.6607792e-20   0.0000000e+00
   1.0500230e+00   5.0600000e+02   3.1450568e-20   0.0000000e+00
   1.0600232e+00   5.0600000e+02   3.7146377e-20   0.0000000e+00
   1.0700234e+00   5.0600000e+02   4.3840468e-20   0.0000000e+00
   1.0800237e+00   5.0500000e+02   5.1701968e-20   0.0000000e+00
   1.0900239e+00   5.0400000e+02   6.0927665e-20   0.0000000e+00
   1.1000241e+00   5.0500000e+02   7.1746370e-20   0.0000000e+00
   1.1100243e+00   5.0400000e+02   8.4423938e-20   0.0000000e+00
   1.1200245e+00   5.0400000e+02   9.9269051e-20   0.0000000e+00
   1.1300248e+00   5.0400000e+02   1.1663987e-19   0.0000000e+00
   1.1400250e+00   5.0400000e+02   1.3695166e-19   0.0000000e+00
   1.1500252e+00   5.0400000e+02   1.6068561e-19   0.0000000e+00
   1.1600254e+00   5.0300000e+02   1.8839885e-19   0.0000000e+00
   1.1700256e+00   5.0400000e+02   2.2073606e-19   0.0000000e+00
   1.1800259e+00   5.0400000e+02   2.5844271e-19   0.0000000e+00
   1.1900261e+00   5.0400000e+02   3.0238021e-19   0.0000000e+00
   1.2000263e+00   5.0400000e+02   3.5354332e-19   0.0000000e+00
   1.2100265e+00   5.0400000e+02   4.1308004e-19   0.0000000e+00
   1.2200267e+00   5.0300000e+02   4.8231430e-19   0.0000000e+00
   1.2300270e+00   5.0300000e+02   5.6277200e-19   0.0000000e+00
   1.2400272e+00   5.0300000e+02   6.5621062e-19   0.0000000e+00
   1.2500274e+00   5.0200000e+02   7.6465312e-19   0.0000000e+00
   1.2600276e+00   5.0200000e+02   8.9042653e-19   0.0000000e+00
   1.2700278e+00   5.0100000e+02   1.0362060e-18   0.0000000e+00
   1.2800281e+00   4.9900000e+02   1.2050649e-18   0.0000000e+00
   1.2900283e+00   4.9800000e+02   1.4005318e-18   0.0000000e+00
   1.3000285e+00   4.9600000e+02   1.6266558e-18   0.0000000e+00
   1.3100287e+00   4.9600000e+02   1.8880799e-18   0.0000000e+00
   1.3200289e+00   4.9500000e+02   2.1901251e-18   0.0000000e+00
   1.3300291e+00   4.9600000e+02   2.5388860e-18   0.0000000e+00
   1.3400294e+00   4.9500000e+02   2.9413383e-18   0.0000000e+00
   1.3500296e+00   4.9400000e+02   3.4054624e-18   0.0000000e+00
   1.3600298e+00   4.9400000e+02   3.9403818e-18   0.0000000e+00
   1.3700300e+00   4.9300000e+02   4.5565211e-18   0.0000000e+00
   1.3800302e+00   4.9200000e+02   5.2657843e-18   0.0000000e+00
   1.3900305e+00   4.9300000e+02   6.0817573e-18   0.0000000e+00
   1.4000307e+00   4.9300000e+02   7.0199358e-18   0.0000000e+00
   1.4100309e+00   4.9300000e+02   8.0979842e-18   0.0000000e+00
   1.4200311e+00   4.9500000e+02   9.3360273e-18   0.0000000e+00
   1.4300313e+00   4.9500000e+02   1.0756980e-17   0.0000000e+00
   1.4400316e+00   4.9600000e+02   1.2386919e-17   0.0000000e+00
   1.4500318e+00   4.9700000e+02   1.4255503e-17   0.0000000e+00
   1.4600320e+00   4.9700000e+02   1.6396447e-17   0.0000000e+00
   1.4700322e+00   4.9800000e+02   1.8848050e-17   0.0000000e+00
   1.4800324e+00   4.9800000e+02   2.1653805e-17   0.0000000e+00
   1.4900327e+00   4.9800000e+02   2.4863063e-17   0.0000000e+00
   1.5000329e+00   4.9900000e+02   2.8627229e-17   0.0000000e+00
   1.5100331e+00   4.9900000e+02   3.2942371e-17   0.0000000e+00
   1.5200333e+00   5.0000000e+02   3.7886356e-17   0.0000000e+00
   1.5300335e+00   5.0000000e+02   4.3547655e-17   0.0000000e+00
   1.5400338e+00   4.9900000e+02   5.0026736e-17   0.0000000e+00
   1.5500340e+00   4.9700000e+02   5.7437633e-17   0.0000000e+00
   1.5600342e+00   4.9600000e+02   6.5909701e-17   0.0000000e+00
   1.5700344e+00   4.9500000e+02   7.5589603e-17   0.0000000e+00
   1.5800346e+00   4.9400000e+02   8.6643533e-17   0.0000000e+00
   1.5900348e+00   4.9300000e+02   9.9259721e-17   0.0000000e+00
   1.6000351e+00   4.9400000e+02   1.1365124e-16   0.0000000e+00
   1.6100353e+00   4.9400000e+02   1.3005916e-16   0.0000000e+00
   1.6200355e+00   4.9500000e+02   1.4875609e-16   0.0000000e+00
   1.6300357e+00   4.9500000e+02   1.7005014e-16   0.0000000e+00
   1.6400359e+00   4.9600000e+02   1.9428936e-16   0.0000000e+00
   1.6500362e+00   4.9700000e+02   2.2186674e-16   0.0000000e+00
   1.6600364e+00   4.9800000e+02   2.5322575e-16   0.0000000e+00
   1.6700366e+00   4.9900000e+02   2.8886663e-16   0.0000000e+00
   1.6800368e+00   5.0100000e+02   3.2935331e-16   0.0000000e+00
   1.6900370e+00   5.0200000e+02   3.7532124e-16   0.0000000e+00
   1.7000373e+00   5.0300000e+02   4.2748609e-16   0.0000000e+00
   1.7100375e+00   5.0400000e+02   4.8665353e-16   0.0000000e+00
   1.7200377e+00   5.0400000e+02   5.5373000e-16   0.0000000e+00
   1.7300379e+00   5.0700000e+02   6.2973494e-16   0.0000000e+00
   1.7400381e+00   5.0700000e+02   7.1581423e-16   0.0000000e+00
   1.7500384e+00   5.1000000e+02   8.1325530e-16   0.0000000e+00
   1.7600386e+00   5.1200000e+02   9.2350390e-16   0.0000000e+00
   1.7700388e+00   5.1200000e+02   1.0481828e-15   0.0000000e+00
   1.7800390e+00   5.1200000e+02   1.1891126e-15   0.0000000e+00
   1.7900392e+00   5.1200000e+02   1.3483350e-15   0.0000000e+00
   1.8000394e+00   5.1100000e+02   1.5281384e-15   0.0000000e+00
   1.8100397e+00   5.1100000e+02   1.7310864e-15   0.0000000e+00
   1.8200399e+00   5.1100000e+02   1.9600500e-15   0.0000000e+00
   1.8300401e+00   5.1100000e+02   2.2182428e-15   0.0000000e+00
   1.8400403e+00   5.1200000e+02   2.5092598e-15   0.0000000e+00
   1.8500405e+00   5.1200000e+02   2.8371216e-15   0.0000000e+00
   1.8600408e+00   5.1300000e+02   3.2063220e-15   0.0000000e+00
   1.8700410e+00   5.1300000e+02   3.6218821e-15   0.0000000e+00
   1.8800412e+00   5.1500000e+02   4.0894090e-15   0.0000000e+00
   1.8900414e+00   5.1700000e+02   4.6151620e-15   0.0000000e+00
   1.9000416e+00   5.1900000e+02   5.2061249e-15   0.0000000e+00
   1.9100419e+00   5.2200000e+02   5.8700866e-15   0.0000000e+00
   1.9200421e+00   5.2500000e+02   6.6157302e-15   0.0000000e+00
   1.9300423e+00   5.2700000e+02   7.4527313e-15   0.0000000e+00
   1.9400425e+00   5.3000000e+02   8.3918665e-15   0.0000000e+00
   1.9500427e+00   5.3300000e+02   9.4451341e-15   0.0000000e+00
   1.9600430e+00   5.3600000e+02   1.0625886e-14   0.0000000e+00
   1.9700432e+00   5.4000000e+02   1.1948976e-14   0.0000000e+00
   1.9800434e+00   5.4300000e+02   1.3430918e-14   0.0000000e+00
   1.9900436e+00   5.4700000e+02   1.5090067e-14   0.0000000e+00
   2.0000438e+00   5.5000000e+02   1.6946816e-14   0.0000000e+00
   2.0100441e+00   5.5200000e+02   1.9023809e-14   0.0000000e+00
   2.0200443e+00   5.5400000e+02   2.1346183e-14   0.0000000e+00
   2.0300445e+00   5.5600000e+02   2.3941829e-14   0.0000000e+00
   2.0400447e+00   5.5700000e+02   2.6841682e-14   0.0000000e+00
   2.0500449e+00   5.5900000e+02   3.0080037e-14   0.0000000e+00
   2.0600451e+00   5.5900000e+02   3.3694900e-14   0.0000000e+00
   2.0700454e+00   5.6000000e+02   3.7728372e-14   0.0000000e+00
   2.0800456e+00   5.6000000e+02   4.2227072e-14   0.0000000e+00
   2.0900458e+00   5.6100000e+02   4.7242599e-14   0.0000000e+00
   2.1000460e+00   5.6000000e+02   5.2832044e-14   0.0000000e+00
   2.1100462e+00   5.6000000e+02   5.9058544e-14   0.0000000e+00
   2.1200465e+00   5.6000000e+02   6.5991903e-14   0.0000000e+00
   2.1300467e+00   5.6000000e+02   7.3709256e-14   0.0000000e+00
   2.1400469e+00   5.5900000e+02   8.2295811e-14   0.0000000e+00
   2.1500471e+00   5.5800000e+02   9.1845657e-14   0.0000000e+00
   2.1600473e+00   5.5600000e+02   1.0246265e-13   0.0000000e+00
   2.1700476e+00   5.5600000e+02   1.1426136e-13   0.0000000e+00
   2.1800478e+00   5.5500000e+02   1.2736818e-13   0.0000000e+00
   2.1900480e+00   5.5300000e+02   1.4192244e-13   0.0000000e+00
   2.2000482e+00   5.5300000e+02   1.5807769e-13   0.0000000e+00
   2.2100484e+00   5.5100000e+02   1.7600309e-13   0.0000000e+00
   2.2200487e+00   5.5000000e+02   1.9588493e-13   0.0000000e+00
   2.2300489e+00   5.4900000e+02   2.1792827e-13   0.0000000e+00
   2.2400491e+00   5.4700000e+02   2.4235876e-13   0.0000000e+00
   2.2500493e+00   5.4700000e+02   2.6942463e-13   0.0000000e+00
   2.2600495e+00   5.4600000e+02   2.9939879e-13   0.0000000e+00
   2.2700497e+00   5.4400000e+02   3.3258125e-13   0.0000000e+00
   2.2800500e+00   5.4200000e+02   3.6930162e-13   0.0000000e+00
   2.2900502e+00   5.4000000e+02   4.0992194e-13   0.0000000e+00
   2.3000504e+00   5.3900000e+02   4.5483971e-13   0.0000000e+00
   2.3100506e+00   5.3700000e+02   5.0449120e-13   0.0000000e+00
   2.3200508e+00   5.3500000e+02   5.5935505e-13   0.0000000e+00
   2.3300511e+00   5.3300000e+02   6.1995623e-13   0.0000000e+00
   2.3400513e+00   5.3000000e+02   6.8687027e-13   0.0000000e+00
   2.3500515e+00   5.2700000e+02   7.6072792e-13   0.0000000e+00
   2.3600517e+00   5.2500000e+02   8.4222022e-13   0.0000000e+00
   2.3700519e+00   5.2300000e+02   9.3210396e-13   0.0000000e+00
   2.3800522e+00   5.1900000e+02   1.0312077e-12   0.0000000e+00
   2.3900524e+00   5.1600000e+02   1.1404381e-12   0.0000000e+00
   2.4000526e+00   5.1400000e+02   1.2607872e-12   0.0000000e+00
   2.4100528e+00   5.1100000e+02   1.3933398e-12   0.0000000e+00
   2.4200530e+00   5.0800000e+02   1.5392819e-12   0.0000000e+00
   2.4300533e+00   5.0600000e+02   1.6999097e-12   0.0000000e+00
   2.4400535e+00   5.0500000e+02   1.8766390e-12   0.0000000e+00
   2.4500537e+00   5.0300000e+02   2.0710163e-12   0.0000000e+00
   2.4600539e+00   5.0300000e+02   2.2847298e-12   0.0000000e+00
   2.4700541e+00   5.0100000e+02   2.5196220e-12   0.0000000e+00
   2.4800544e+00   5.0100000e+02   2.7777029e-12   0.0000000e+00
   2.4900546e+00   5.0000000e+02   3.0611647e-12   0.0000000e+00
   2.5000548e+00   4.9900000e+02   3.3723975e-12   0.0000000e+00
   2.5100550e+00   4.9900000e+02   3.7140060e-12   0.0000000e+00
   2.5200552e+00   4.9900000e+02   4.0888281e-12   0.0000000e+00
   2.5300554e+00   5.0000000e+02   4.4999548e-12   0.0000000e+00
   2.5400557e+00   4.9900000e+02   4.9507514e-12   0.0000000e+00
   2.5500559e+00   4.9900000e+02   5.4448805e-12   0.0000000e+00
   2.5600561e+00   4.9900000e+02   5.9863275e-12   0.0000000e+00
   2.5700563e+00   4.9900000e+02   6.5794272e-12   0.0000000e+00
   2.5800565e+00   4.9900000e+02   7.2288929e-12   0.0000000e+00
   2.5900568e+00   4.9900000e+02   7.9398479e-12   0.0000000e+00
   2.6000570e+00   4.9900000e+02   8.7178593e-12   0.0000000e+00
   2.6100572e+00   5.0000000e+02   9.5689744e-12   0.0000000e+00
   2.6200574e+00   5.0000000e+02   1.0499760e-11   0.0000000e+00
   2.6300576e+00   5.0000000e+02   1.1517345e-11   0.0000000e+00
   2.6400579e+00   5.0000000e+02   1.2629465e-11   0.0000000e+00
   2.6500581e+00   5.0200000e+02   1.3844514e-11   0.0000000e+00
   2.6600583e+00   5.0200000e+02   1.5171593e-11   0.0000000e+00
   2.6700585e+00   5.0300000e+02   1.6620571e-11   0.0000000e+00
   2.6800587e+00   5.0300000e+02   1.8202143e-11   0.0000000e+00
   2.6900590e+00   5.0400000e+02   1.9927898e-11   0.0000000e+00
   2.7000592e+00   5.0400000e+02   2.1810388e-11   0.0000000e+00
   2.7100594e+00   5.0500000e+02   2.3863204e-11   0.0000000e+00
   2.7200596e+00   5.0600000e+02   2.6101057e-11   0.0000000e+00
   2.7300598e+00   5.0700000e+02   2.8539870e-11   0.0000000e+00
   2.7400600e+00   5.0800000e+02   3.1196864e-11   0.0000000e+00
   2.7500603e+00   5.0800000e+02   3.4090664e-11   0.0000000e+00
   2.7600605e+00   5.0900000e+02   3.7241407e-11   0.0000000e+00
   2.7700607e+00   5.1000000e+02   4.0670857e-11   0.0000000e+00
   2.7800609e+00   5.1100000e+02   4.4402526e-11   0.0000000e+00
   2.7900611e+00   5.1200000e+02   4.8461813e-11   0.0000000e+00
   2.8000614e+00   5.1300000e+02   5.2876143e-11   0.0000000e+00
   2.8100616e+00   5.1500000e+02   5.7675120e-11   0.0000000e+00
   2.8200618e+00   5.1500000e+02   6.2890691e-11   0.0000000e+00
   2.8300620e+00   5.1500000e+02   6.8557319e-11   0.0000000e+00
   2.8400622e+00   5.1600000e+02   7.4712176e-11   0.0000000e+00
   2.8500625e+00   5.1600000e+02   8.1395335e-11   0.0000000e+00
   2.8600627e+00   5.1600000e+02   8.8649991e-11   0.0000000e+00
   2.8700629e+00   5.1600000e+02   9.6522687e-11   0.0000000e+00
   2.8800631e+00   5.1500000e+02   1.0506356e-10   0.0000000e+00
   2.8900633e+00   5.1500000e+02   1.1432660e-10   0.0000000e+00
   2.9000636e+00   5.1500000e+02   1.2436992e-10   0.0000000e+00
   2.9100638e+00   5.1500000e+02   1.3525609e-10   0.0000000e+00
   2.9200640e+00   5.1600000e+02   1.4705240e-10   0.0000000e+00
   2.9300642e+00   5.1600000e+02   1.5983125e-10   0.0000000e+00
   2.9400644e+00   5.1600000e+02   1.7367048e-10   0.0000000e+00
   2.9500647e+00   5.1700000e+02   1.8865377e-10   0.0000000e+00
   2.9600649e+00   5.1700000e+02   2.0487105e-10   0.0000000e+00
   2.9700651e+00   5.1800000e+02   2.2241893e-10   0.0000000e+00
   2.9800653e+00   5.1800000e+02   2.4140117e-10   0.0000000e+00
   2.9900655e+00   5.1900000e+02   2.6192919e-10   0.0000000e+00
   3.0000657e+00   5.2000000e+02   2.8412260e-10   0.0000000e+00
   3.0100660e+00   5.2000000e+02   3.0810972e-10   0.0000000e+00
   3.0200662e+00   5.2000000e+02   3.3402826e-10   0.0000000e+00
   3.0300664e+00   5.2100000e+02   3.6202586e-10   0.0000000e+00
   3.0400666e+00   5.2100000e+02   3.9226087e-10   0.0000000e+00
   3.0500668e+00   5.2200000e+02   4.2490298e-10   0.0000000e+00
   3.0600671e+00   5.2300000e+02   4.6013406e-10   0.0000000e+00
   3.0700673e+00   5.2300000e+02   4.9814892e-10   0.0000000e+00
   3.0800675e+00   5.2300000e+02   5.3915622e-10   0.0000000e+00
   3.0900677e+00   5.2400000e+02   5.8337933e-10   0.0000000e+00
   3.1000679e+00   5.2400000e+02   6.3105739e-10   0.0000000e+00
   3.1100682e+00   5.2600000e+02   6.8244624e-10   0.0000000e+00
   3.1200684e+00   5.2600000e+02   7.3781962e-10   0.0000000e+00
   3.1300686e+00   5.2600000e+02   7.9747027e-10   0.0000000e+00
   3.1400688e+00   5.2700000e+02   8.6171116e-10   0.0000000e+00
   3.1500690e+00   5.2700000e+02   9.3087684e-10   0.0000000e+00
   3.1600693e+00   5.2700000e+02   1.0053248e-09   0.0000000e+00
   3.1700695e+00   5.2900000e+02   1.0854370e-09   0.0000000e+00
   3.1800697e+00   5.2900000e+02   1.1716212e-09   0.0000000e+00
   3.1900699e+00   5.3000000e+02   1.2643129e-09   0.0000000e+00
   3.2000701e+00   5.3100000e+02   1.3639770e-09   0.0000000e+00
   3.2100703e+00   5.3100000e+02   1.4711095e-09   0.0000000e+00
   3.2200706e+00   5.3200000e+02   1.5862395e-09   0.0000000e+00
   3.2300708e+00   5.3300000e+02   1.7099314e-09   0.0000000e+00
   3.2400710e+00   5.3300000e+02   1.8427870e-09   0.0000000e+00
   3.2500712e+00   5.3300000e+02   1.9854476e-09   0.0000000e+00
   3.2600714e+00   5.3400000e+02   2.1385969e-09   0.0000000e+00
   3.2700717e+00   5.3500000e+02   2.3029631e-09   0.0000000e+00
   3.2800719e+00   5.3400000e+02   2.4793216e-09   0.0000000e+00
   3.2900721e+00   5.3500000e+02   2.6684985e-09   0.0000000e+00
   3.3000723e+00   5.3500000e+02   2.8713728e-09   0.0000000e+00
   3.3100725e+00   5.3500000e+02   3.0888800e-09   0.0000000e+00
   3.3200728e+00   5.3500000e+02   3.3220155e-09   0.0000000e+00
   3.3300730e+00   5.3400000e+02   3.5718381e-09   0.0000000e+00
   3.3400732e+00   5.3400000e+02   3.8394735e-09   0.0000000e+00
   3.3500734e+00   5.3400000e+02   4.1261185e-09   0.0000000e+00
   3.3600736e+00   5.3400000e+02   4.4330450e-09   0.0000000e+00
   3.3700739e+00   5.3400000e+02   4.7616043e-09   0.0000000e+00
   3.3800741e+00   5.3300000e+02   5.1132320e-09   0.0000000e+00
   3.3900743e+00   5.3200000e+02   5.4894524e-09   0.0000000e+00
   3.4000745e+00   5.3100000e+02   5.8918839e-09   0.0000000e+00
   3.4100747e+00   5.3100000e+02   6.3222440e-09   0.0000000e+00
   3.4200750e+00   5.3000000e+02   6.7823553e-09   0.0000000e+00
   3.4300752e+00   5.2900000e+02   7.2741512e-09   0.0000000e+00
   3.4400754e+00   5.2800000e+02   7.7996821e-09   0.0000000e+00
   3.4500756e+00   5.2800000e+02   8.3611217e-09   0.0000000e+00
   3.4600758e+00   5.2800000e+02   8.9607743e-09   0.0000000e+00
   3.4700760e+00   5.2700000e+02   9.6010816e-09   0.0000000e+00
   3.4800763e+00   5.2700000e+02   1.0284630e-08   0.0000000e+00
   3.4900765e+00   5.2600000e+02   1.1014160e-08   0.0000000e+00
   3.5000767e+00   5.2600000e+02   1.1792571e-08   0.0000000e+00
   3.5100769e+00   5.2500000e+02   1.2622935e-08   0.0000000e+00
   3.5200771e+00   5.2400000e+02   1.3508502e-08   0.0000000e+00
   3.5300774e+00   5.2300000e+02   1.4452708e-08   0.0000000e+00
   3.5400776e+00   5.2300000e+02   1.5459191e-08   0.0000000e+00
   3.5500778e+00   5.2200000e+02   1.6531796e-08   0.0000000e+00
   3.5600780e+00   5.2100000e+02   1.7674588e-08   0.0000000e+00
   3.5700782e+00   5.2000000e+02   1.8891864e-08   0.0000000e+00
   3.5800785e+00   5.1900000e+02   2.0188163e-08   0.0000000e+00
   3.5900787e+00   5.1900000e+02   2.1568282e-08   0.0000000e+00
   3.6000789e+00   5.1800000e+02   2.3037283e-08   0.0000000e+00
   3.6100791e+00   5.1700000e+02   2.4600513e-08   0.0000000e+00
   3.6200793e+00   5.1600000e+02   2.6263617e-08   0.0000000e+00
   3.6300796e+00   5.1500000e+02   2.8032548e-08   0.0000000e+00
   3.6400798e+00   5.1500000e+02   2.9913589e-08   0.0000000e+00
   3.6500800e+00   5.1400000e+02   3.1913366e-08   0.0000000e+00
   3.6600802e+00   5.1300000e+02   3.4038863e-08   0.0000000e+00
   3.6700804e+00   5.1200000e+02   3.6297446e-08   0.0000000e+00
   3.6800807e+00   5.1200000e+02   3.8696874e-08   0.0000000e+00
   3.6900809e+00   5.1100000e+02   4.1245324e-08   0.0000000e+00
   3.7000811e+00   5.1000000e+02   4.3951406e-08   0.0000000e+00
   3.7100813e+00   5.1000000e+02   4.6824189e-08   0.0000000e+00
   3.7200815e+00   5.0900000e+02   4.9873220e-08   0.0000000e+00
   3.7300817e+00   5.0800000e+02   5.3108543e-08   0.0000000e+00
   3.7400820e+00   5.0800000e+02   5.6540731e-08   0.0000000e+00
   3.7500822e+00   5.0700000e+02   6.0180903e-08   0.0000000e+00
   3.7600824e+00   5.0700000e+02   6.4040752e-08   0.0000000e+00
   3.7700826e+00   5.0600000e+02   6.8132572e-08   0.0000000e+00
   3.7800828e+00   5.0600000e+02   7.2469285e-08   0.0000000e+00
   3.7900831e+00   5.0600000e+02   7.7064467e-08   0.0000000e+00
   3.8000833e+00   5.0500000e+02   8.1932383e-08   0.0000000e+00
   3.8100835e+00   5.0500000e+02   8.7088011e-08   0.0000000e+00
   3.8200837e+00   5.0500000e+02   9.2547079e-08   0.0000000e+00
   3.8300839e+00   5.0500000e+02   9.8326097e-08   0.0000000e+00
   3.8400842e+00   5.0400000e+02   1.0444239e-07   0.0000000e+00
   3.8500844e+00   5.0400000e+02   1.1091413e-07   0.0000000e+00
   3.8600846e+00   5.0400000e+02   1.1776038e-07   0.0000000e+00
   3.8700848e+00   5.0300000e+02   1.2500113e-07   0.0000000e+00
   3.8800850e+00   5.0200000e+02   1.3265733e-07   0.0000000e+00
   3.8900853e+00   5.0100000e+02   1.4075094e-07   0.0000000e+00
   3.9000855e+00   5.0000000e+02   1.4930496e-07   0.0000000e+00
   3.9100857e+00   5.0000000e+02   1.5834349e-07   0.0000000e+00
   3.9200859e+00   4.9900000e+02   1.6789177e-07   0.0000000e+00
   3.9300861e+00   4.9800000e+02   1.7797620e-07   0.0000000e+00
   3.9400863e+00   4.9800000e+02   1.8862443e-07   0.0000000e+00
   3.9500866e+00   4.9800000e+02   1.9986538e-07   0.0000000e+00
   3.9600868e+00   4.9700000e+02   2.1172930e-07   0.0000000e+00
   3.9700870e+00   4.9700000e+02   2.2424784e-07   0.0000000e+00
   3.9800872e+00   4.9700000e+02   2.3745406e-07   0.0000000e+00
   3.9900874e+00   4.9600000e+02   2.5138254e-07   0.0000000e+00
   4.0000877e+00   4.9700000e+02   2.6606938e-07   0.0000000e+00
   4.0100879e+00   4.9600000e+02   2.8155231e-07   0.0000000e+00
   4.0200881e+00   4.9700000e+02   2.9787073e-07   0.0000000e+00
   4.0300883e+00   4.9700000e+02   3.1506576e-07   0.0000000e+00
   4.0400885e+00   4.9700000e+02   3.3318034e-07   0.0000000e+00
   4.0500888e+00   4.9700000e+02   3.5225923e-07   0.0000000e+00
   4.0600890e+00   4.9800000e+02   3.7234917e-07   0.0000000e+00
   4.0700892e+00   4.9900000e+02   3.9349886e-07   0.0000000e+00
   4.0800894e+00   4.9900000e+02   4.1575909e-07   0.0000000e+00
   4.0900896e+00   4.9900000e+02   4.3918280e-07   0.0000000e+00
   4.1000899e+00   5.0000000e+02   4.6382512e-07   0.0000000e+00
   4.1100901e+00   5.0000000e+02   4.8974350e-07   0.0000000e+00
   4.1200903e+00   5.0200000e+02   5.1699775e-07   0.0000000e+00
   4.1300905e+00   5.0300000e+02   5.4565013e-07   0.0000000e+00
   4.1400907e+00   5.0400000e+02   5.7576546e-07   0.0000000e+00
   4.1500910e+00   5.0500000e+02   6.0741113e-07   0.0000000e+00
   4.1600912e+00   5.0600000e+02   6.4065728e-07   0.0000000e+00
   4.1700914e+00   5.0600000e+02   6.7557681e-07   0.0000000e+00
   4.1800916e+00   5.0800000e+02   7.1224550e-07   0.0000000e+00
   4.1900918e+00   5.0900000e+02   7.5074211e-07   0.0000000e+00
   4.2000920e+00   5.1000000e+02   7.9114843e-07   0.0000000e+00
   4.2100923e+00   5.1100000e+02   8.3354944e-07   0.0000000e+00
   4.2200925e+00   5.1200000e+02   8.7803333e-07   0.0000000e+00
   4.2300927e+00   5.1300000e+02   9.2469165e-07   0.0000000e+00
   4.2400929e+00   5.1500000e+02   9.7361939e-07   0.0000000e+00
   4.2500931e+00   5.1500000e+02   1.0249151e-06   0.0000000e+00
   4.2600934e+00   5.1600000e+02   1.0786808e-06   0.0000000e+00
   4.2700936e+00   5.1600000e+02   1.1350225e-06   0.0000000e+00
   4.2800938e+00   5.1700000e+02   1.1940500e-06   0.0000000e+00
   4.2900940e+00   5.1800000e+02   1.2558768e-06   0.0000000e+00
   4.3000942e+00   5.1700000e+02   1.3206206e-06   0.0000000e+00
   4.3100945e+00   5.1700000e+02   1.3884034e-06   0.0000000e+00
   4.3200947e+00   5.1700000e+02   1.4593513e-06   0.0000000e+00
   4.3300949e+00   5.1700000e+02   1.5335946e-06   0.0000000e+00
   4.3400951e+00   5.1600000e+02   1.6112684e-06   0.0000000e+00
   4.3500953e+00   5.1600000e+02   1.6925121e-06   0.0000000e+00
   4.3600956e+00   5.1600000e+02   1.7774698e-06   0.0000000e+00
   4.3700958e+00   5.1500000e+02   1.8662905e-06   0.0000000e+00
   4.3800960e+00   5.1500000e+02   1.9591281e-06   0.0000000e+00
   4.3900962e+00   5.1400000e+02   2.0561412e-06   0.0000000e+00
   4.4000964e+00   5.1400000e+02   2.1574937e-06   0.0000000e+00
   4.4100966e+00   5.1300000e+02   2.2633548e-06   0.0000000e+00
   4.4200969e+00   5.1300000e+02   2.3738987e-06   0.0000000e+00
   4.4300971e+00   5.1300000e+02   2.4893052e-06   0.0000000e+00
   4.4400973e+00   5.1300000e+02   2.6097594e-06   0.0000000e+00
   4.4500975e+00   5.1300000e+02   2.7354522e-06   0.0000000e+00
   4.4600977e+00   5.1200000e+02   2.8665800e-06   0.0000000e+00
   4.4700980e+00   5.1200000e+02   3.0033449e-06   0.0000000e+00
   4.4800982e+00   5.1200000e+02   3.1459551e-06   0.0000000e+00
   4.4900984e+00   5.1200000e+02   3.2946243e-06   0.0000000e+00
   4.5000986e+00   5.1200000e+02   3.4495727e-06   0.0000000e+00
   4.5100988e+00   5.1100000e+02   3.6110261e-06   0.0000000e+00
   4.5200991e+00   5.1200000e+02   3.7792167e-06   0.0000000e+00
   4.5300993e+00   5.1100000e+02   3.9543830e-06   0.0000000e+00
   4.5400995e+00   5.1100000e+02   4.1367694e-06   0.0000000e+00
   4.5500997e+00   5.1000000e+02   4.3266270e-06   0.0000000e+00
   4.5600999e+00   5.1000000e+02   4.5242130e-06   0.0000000e+00
   4.5701002e+00   5.0900000e+02   4.7297912e-06   0.0000000e+00
   4.5801004e+00   5.0800000e+02   4.9436315e-06   0.0000000e+00
   4.5901006e+00   5.0800000e+02   5.1660106e-06   0.0000000e+00
   4.6001008e+00   5.0800000e+02   5.3972115e-06   0.0000000e+00
   4.6101010e+00   5.0700000e+02   5.6375238e-06   0.0000000e+00
   4.6201013e+00   5.0700000e+02   5.8872433e-06   0.0000000e+00
   4.6301015e+00   5.0700000e+02   6.1466725e-06   0.0000000e+00
   4.6401017e+00   5.0700000e+02   6.4161202e-06   0.0000000e+00
   4.6501019e+00   5.0700000e+02   6.6959017e-06   0.0000000e+00
   4.6601021e+00   5.0600000e+02   6.9863385e-06   0.0000000e+00
   4.6701023e+00   5.0700000e+02   7.2877584e-06   0.0000000e+00
   4.6801026e+00   5.0700000e+02   7.6004954e-06   0.0000000e+00
   4.6901028e+00   5.0700000e+02   7.9248898e-06   0.0000000e+00
   4.7001030e+00   5.0700000e+02   8.2612875e-06   0.0000000e+00
   4.7101032e+00   5.0800000e+02   8.6100406e-06   0.0000000e+00
   4.7201034e+00   5.0800000e+02   8.9715067e-06   0.0000000e+00
   4.7301037e+00   5.0700000e+02   9.3460491e-06   0.0000000e+00
   4.7401039e+00   5.0800000e+02   9.7340366e-06   0.0000000e+00
   4.7501041e+00   5.0800000e+02   1.0135843e-05   0.0000000e+00
   4.7601043e+00   5.0800000e+02   1.0551847e-05   0.0000000e+00
   4.7701045e+00   5.0900000e+02   1.0982432e-05   0.0000000e+00
   4.7801048e+00   5.0900000e+02   1.1427986e-05   0.0000000e+00
   4.7901050e+00   5.0900000e+02   1.1888901e-05   0.0000000e+00
   4.8001052e+00   5.0900000e+02   1.2365574e-05   0.0000000e+00
   4.8101054e+00   5.1000000e+02   1.2858404e-05   0.0000000e+00
   4.8201056e+00   5.1000000e+02   1.3367793e-05   0.0000000e+00
   4.8301059e+00   5.1100000e+02   1.3894148e-05   0.0000000e+00
   4.8401061e+00   5.1100000e+02   1.4437875e-05   0.0000000e+00
   4.8501063e+00   5.1100000e+02   1.4999385e-05   0.0000000e+00
   4.8601065e+00   5.1100000e+02   1.5579089e-05   0.0000000e+00
   4.8701067e+00   5.1200000e+02   1.6177399e-05   0.0000000e+00
   4.8801069e+00   5.1200000e+02   1.6794727e-05   0.0000000e+00
   4.8901072e+00   5.1300000e+02   1.7431485e-05   0.0000000e+00
   4.9001074e+00   5.1300000e+02   1.8088084e-05   0.0000000e+00
   4.9101076e+00   5.1400000e+02   1.8764934e-05   0.0000000e+00
   4.9201078e+00   5.1400000e+02   1.9462444e-05   0.0000000e+00
   4.9301080e+00   5.1500000e+02   2.0181016e-05   0.0000000e+00
   4.9401083e+00   5.1500000e+02   2.0921052e-05   0.0000000e+00
   4.9501085e+00   5.1500000e+02   2.1682948e-05   0.0000000e+00
   4.9601087e+00   5.1700000e+02   2.2467095e-05   0.0000000e+00
   4.9701089e+00   5.1700000e+02   2.3273877e-05   0.0000000e+00
   4.9801091e+00   5.1800000e+02   2.4103672e-05   0.0000000e+00
   4.9901094e+00   5.1900000e+02   2.4956848e-05   0.0000000e+00
   5.0001096e+00   5.1900000e+02   2.5833764e-05   0.0000000e+00
   5.0101098e+00   5.1900000e+02   2.6734770e-05   0.0000000e+00
   5.0201100e+00   5.2000000e+02   2.7660203e-05   0.0000000e+00
   5.0301102e+00   5.2100000e+02   2.8610388e-05   0.0000000e+00
   5.0401105e+00   5.2300000e+02   2.9585634e-05   0.0000000e+00
   5.0501107e+00   5.2300000e+02   3.0586237e-05   0.0000000e+00
   5.0601109e+00   5.2400000e+02   3.1612474e-05   0.0000000e+00
   5.0701111e+00   5.2500000e+02   3.2664607e-05   0.0000000e+00
   5.0801113e+00   5.2500000e+02   3.3742875e-05   0.0000000e+00
   5.0901116e+00   5.2600000e+02   3.4847496e-05   0.0000000e+00
   5.1001118e+00   5.2600000e+02   3.5978667e-05   0.0000000e+00
   5.1101120e+00   5.2700000e+02   3.7136559e-05   0.0000000e+00
   5.1201122e+00   5.2800000e+02   3.8321317e-05   0.0000000e+00
   5.1301124e+00   5.2900000e+02   3.9533057e-05   0.0000000e+00
   5.1401126e+00   5.2900000e+02   4.0771868e-05   0.0000000e+00
   5.1501129e+00   5.3000000e+02   4.2037802e-05   0.0000000e+00
   5.1601131e+00   5.3000000e+02   4.3330881e-05   0.0000000e+00
   5.1701133e+00   5.3100000e+02   4.4651090e-05   0.0000000e+00
   5.1801135e+00   5.3100000e+02   4.5998374e-05   0.0000000e+00
   5.1901137e+00   5.3200000e+02   4.7372640e-05   0.0000000e+00
   5.2001140e+00   5.3200000e+02   4.8773750e-05   0.0000000e+00
   5.2101142e+00   5.3300000e+02   5.0201522e-05   0.0000000e+00
   5.2201144e+00   5.3400000e+02   5.1655727e-05   0.0000000e+00
   5.2301146e+00   5.3500000e+02   5.3136084e-05   0.0000000e+00
   5.2401148e+00   5.3500000e+02   5.4642260e-05   0.0000000e+00
   5.2501151e+00   5.3600000e+02   5.6173867e-05   0.0000000e+00
   5.2601153e+00   5.3500000e+02   5.7730459e-05   0.0000000e+00
   5.2701155e+00   5.3600000e+02   5.9311528e-05   0.0000000e+00
   5.2801157e+00   5.3700000e+02   6.0916502e-05   0.0000000e+00
   5.2901159e+00   5.3700000e+02   6.2544744e-05   0.0000000e+00
   5.3001162e+00   5.3700000e+02   6.4195544e-05   0.0000000e+00
   5.3101164e+00   5.3800000e+02   6.5868121e-05   0.0000000e+00
   5.3201166e+00   5.3900000e+02   6.7561617e-05   0.0000000e+00
   5.3301168e+00   5.3900000e+02   6.9275095e-05   0.0000000e+00
   5.3401170e+00   5.3900000e+02   7.1007534e-05   0.0000000e+00
   5.3501172e+00   5.4000000e+02   7.2757827e-05   0.0000000e+00
   5.3601175e+00   5.4100000e+02   7.4524778e-05   0.0000000e+00
   5.3701177e+00   5.4100000e+02   7.6307095e-05   0.0000000e+00
   5.3801179e+00   5.4200000e+02   7.8103392e-05   0.0000000e+00
   5.3901181e+00   5.4200000e+02   7.9912180e-05   0.0000000e+00
   5.4001183e+00   5.4200000e+02   8.1731865e-05   0.0000000e+00
   5.4101186e+00   5.4300000e+02   8.3560747e-05   0.0000000e+00
   5.4201188e+00   5.4300000e+02   8.5397011e-05   0.0000000e+00
   5.4301190e+00   5.4400000e+02   8.7238726e-05   0.0000000e+00
   5.4401192e+00   5.4300000e+02   8.9083841e-05   0.0000000e+00
   5.4501194e+00   5.4400000e+02   9.0930182e-05   0.0000000e+00
   5.4601197e+00   5.4400000e+02   9.2775442e-05   0.0000000e+00
   5.4701199e+00   5.4500000e+02   9.4617186e-05   0.0000000e+00
   5.4801201e+00   5.4500000e+02   9.6452839e-05   0.0000000e+00
   5.4901203e+00   5.4500000e+02   9.8279684e-05   0.0000000e+00
   5.5001205e+00   5.4600000e+02   1.0009486e-04   0.0000000e+00
   5.5101208e+00   5.4700000e+02   1.0189536e-04   0.0000000e+00
   5.5201210e+00   5.4700000e+02   1.0367800e-04   0.0000000e+00
   5.5301212e+00   5.4700000e+02   1.0543948e-04   0.0000000e+00
   5.5401214e+00   5.4800000e+02   1.0717629e-04   0.0000000e+00
   5.5501216e+00   5.4900000e+02   1.0888478e-04   0.0000000e+00
   5.5601219e+00   5.5000000e+02   1.1056112e-04   0.0000000e+00
   5.5701221e+00   5.5100000e+02   1.1220131e-04   0.0000000e+00
   5.5801223e+00   5.5100000e+02   1.1380115e-04   0.0000000e+00
   5.5901225e+00   5.5200000e+02   1.1535628e-04   0.0000000e+00
   5.6001227e+00   5.5300000e+02   1.1686212e-04   0.0000000e+00
   5.6101229e+00   5.5300000e+02   1.1831392e-04   0.0000000e+00
   5.6201232e+00   5.5400000e+02   1.1970672e-04   0.0000000e+00
   5.6301234e+00   5.5500000e+02   1.2103535e-04   0.0000000e+00
   5.6401236e+00   5.5600000e+02   1.2229446e-04   0.0000000e+00
   5.6501238e+00   5.5600000e+02   1.2347844e-04   0.0000000e+00
   5.6601240e+00   5.5800000e+02   1.2458151e-04   0.0000000e+00
   5.6701243e+00   5.5800000e+02   1.2559764e-04   0.0000000e+00
   5.6801245e+00   5.5800000e+02   1.2652059e-04   0.0000000e+00
   5.6901247e+00   5.5900000e+02   1.2734388e-04   0.0000000e+00
   5.7001249e+00   5.6000000e+02   1.2806081e-04   0.0000000e+00
   5.7101251e+00   5.6000000e+02   1.2866443e-04   0.0000000e+00
   5.7201254e+00   5.6100000e+02   1.2914756e-04   0.0000000e+00
   5.7301256e+00   5.6200000e+02   1.2950276e-04   0.0000000e+00
   5.7401258e+00   5.6300000e+02   1.2972237e-04   0.0000000e+00
   5.7501260e+00   5.6300000e+02   1.2979846e-04   0.0000000e+00
   5.7601262e+00   5.6300000e+02   1.2972284e-04   0.0000000e+00
   5.7701265e+00   5.6400000e+02   1.2948708e-04   0.0000000e+00
   5.7801267e+00   5.6500000e+02   1.2908248e-04   0.0000000e+00
   5.7901269e+00   5.6500000e+02   1.2850009e-04   0.0000000e+00
   5.8001271e+00   5.6600000e+02   1.2773068e-04   0.0000000e+00
   5.8101273e+00   5.6600000e+02   1.2676476e-04   0.0000000e+00
   5.8201276e+00   5.6500000e+02   1.2559259e-04   0.0000000e+00
   5.8301278e+00   5.6500000e+02   1.2420412e-04   0.0000000e+00
   5.8401280e+00   5.6600000e+02   1.2258907e-04   0.0000000e+00
   5.8501282e+00   5.6600000e+02   1.2073686e-04   0.0000000e+00
   5.8601284e+00   5.6600000e+02   1.1863665e-04   0.0000000e+00
   5.8701286e+00   5.6600000e+02   1.1627734e-04   0.0000000e+00
   5.8801289e+00   5.6600000e+02   1.1364752e-04   0.0000000e+00
   5.8901291e+00   5.6400000e+02   1.1073555e-04   0.0000000e+00
   5.9001293e+00   5.6400000e+02   1.0752949e-04   0.0000000e+00
   5.9101295e+00   5.6500000e+02   1.0401714e-04   0.0000000e+00
   5.9201297e+00   5.6400000e+02   1.0018602e-04   0.0000000e+00
   5.9301300e+00   5.6400000e+02   9.6023409e-05   0.0000000e+00
   5.9401302e+00   5.6400000e+02   9.1516293e-05   0.0000000e+00
   5.9501304e+00   5.6300000e+02   8.6651413e-05   0.0000000e+00
   5.9601306e+00   5.6400000e+02   8.1415246e-05   0.0000000e+00
   5.9701308e+00   5.6300000e+02   7.5794018e-05   0.0000000e+00
   5.9801311e+00   5.6300000e+02   6.9773703e-05   0.0000000e+00
   5.9901313e+00   5.6300000e+02   6.3340033e-05   0.0000000e+00
   6.0001315e+00   5.6300000e+02   5.6478499e-05   0.0000000e+00
   6.0101317e+00   5.6300000e+02   4.9174360e-05   0.0000000e+00
   6.0201319e+00   5.6300000e+02   4.1412650e-05   0.0000000e+00
   6.0301322e+00   5.6200000e+02   3.3178186e-05   0.0000000e+00
   6.0401324e+00   5.6200000e+02   2.4455571e-05   0.0000000e+00
   6.0501326e+00   5.6200000e+02   1.5229211e-05   0.0000000e+00
   6.0601328e+00   5.6200000e+02   5.4833177e-06   0.0000000e+00
   6.0701330e+00   5.6200000e+02  -4.7980769e-06   0.0000000e+00
   6.0801332e+00   5.6200000e+02  -1.5631112e-05   0.0000000e+00
   6.0901335e+00   5.6100000e+02  -2.7032086e-05   0.0000000e+00
   6.1001337e+00   5.6100000e+02  -3.9017442e-05   0.0000000e+00
   6.1101339e+00   5.6200000e+02  -5.1603756e-05   0.0000000e+00
   6.1201341e+00   5.6100000e+02  -6.4807723e-05   0.0000000e+00
   6.1301343e+00   5.6200000e+02  -7.8646142e-05   0.0000000e+00
   6.1401346e+00   5.6100000e+02  -9.3135897e-05   0.0000000e+00
   6.1501348e+00   5.6100000e+02  -1.0829394e-04   0.0000000e+00
   6.1601350e+00   5.6100000e+02  -1.2413729e-04   0.0000000e+00
   6.1701352e+00   5.6100000e+02  -1.4068299e-04   0.0000000e+00
   6.1801354e+00   5.6100000e+02  -1.5794808e-04   0.0000000e+00
   6.1901357e+00   5.6100000e+02  -1.7594963e-04   0.0000000e+00
   6.2001359e+00   5.6100000e+02  -1.9470465e-04   0.0000000e+00
   6.2101361e+00   5.6000000e+02  -2.1423012e-04   0.0000000e+00
   6.2201363e+00   5.6000000e+02  -2.3454295e-04   0.0000000e+00
   6.2301365e+00   5.6000000e+02  -2.5565992e-04   0.0000000e+00
   6.2401368e+00   5.6000000e+02  -2.7759772e-04   0.0000000e+00
   6.2501370e+00   5.6000000e+02  -3.0037286e-04   0.0000000e+00
   6.2601372e+00   5.5900000e+02  -3.2400171e-04   0.0000000e+00
   6.2701374e+00   5.5900000e+02  -3.4850039e-04   0.0000000e+00
   6.2801376e+00   5.5900000e+02  -3.7388480e-04   0.0000000e+00
   6.2901379e+00   5.5800000e+02  -4.0017057e-04   0.0000000e+00
   6.3001381e+00   5.5700000e+02  -4.2737303e-04   0.0000000e+00
   6.3101383e+00   5.5800000e+02  -4.5550717e-04   0.0000000e+00
   6.3201385e+00   5.5700000e+02  -4.8458761e-04   0.0000000e+00
   6.3301387e+00   5.5800000e+02  -5.1462857e-04   0.0000000e+00
   6.3401389e+00   5.5700000e+02  -5.4564382e-04   0.0000000e+00
   6.3501392e+00   5.5600000e+02  -5.7764664e-04   0.0000000e+00
   6.3601394e+00   5.5600000e+02  -6.1064981e-04   0.0000000e+00
   6.3701396e+00   5.5600000e+02  -6.4466553e-04   0.0000000e+00
   6.3801398e+00   5.5600000e+02  -6.7970540e-04   0.0000000e+00
   6.3901400e+00   5.5500000e+02  -7.1578038e-04   0.0000000e+00
   6.4001403e+00   5.5500000e+02  -7.5290073e-04   0.0000000e+00
   6.4101405e+00   5.5500000e+02  -7.9107597e-04   0.0000000e+00
   6.4201407e+00   5.5300000e+02  -8.3031485e-04   0.0000000e+00
   6.4301409e+00   5.5300000e+02  -8.7062529e-04   0.0000000e+00
   6.4401411e+00   5.5200000e+02  -9.1201430e-04   0.0000000e+00
   6.4501414e+00   5.5100000e+02  -9.5448800e-04   0.0000000e+00
   6.4601416e+00   5.5100000e+02  -9.9805149e-04   0.0000000e+00
   6.4701418e+00   5.5100000e+02  -1.0427089e-03   0.0000000e+00
   6.4801420e+00   5.5100000e+02  -1.0884631e-03   0.0000000e+00
   6.4901422e+00   5.5000000e+02  -1.1353161e-03   0.0000000e+00
   6.5001425e+00   5.4900000e+02  -1.1832684e-03   0.0000000e+00
   6.5101427e+00   5.4800000e+02  -1.2323195e-03   0.0000000e+00
   6.5201429e+00   5.4700000e+02  -1.2824675e-03   0.0000000e+00
   6.5301431e+00   5.4700000e+02  -1.3337091e-03   0.0000000e+00
   6.5401433e+00   5.4600000e+02  -1.3860394e-03   0.0000000e+00
   6.5501435e+00   5.4600000e+02  -1.4394525e-03   0.0000000e+00
   6.5601438e+00   5.4500000e+02  -1.4939403e-03   0.0000000e+00
   6.5701440e+00   5.4500000e+02  -1.5494936e-03   0.0000000e+00
   6.5801442e+00   5.4400000e+02  -1.6061013e-03   0.0000000e+00
   6.5901444e+00   5.4400000e+02  -1.6637506e-03   0.0000000e+00
   6.6001446e+00   5.4300000e+02  -1.7224267e-03   0.0000000e+00
   6.6101449e+00   5.4300000e+02  -1.7821133e-03   0.0000000e+00
   6.6201451e+00   5.4200000e+02  -1.8427919e-03   0.0000000e+00
   6.6301453e+00   5.4200000e+02  -1.9044420e-03   0.0000000e+00
   6.6401455e+00   5.4200000e+02  -1.9670410e-03   0.0000000e+00
   6.6501457e+00   5.4000000e+02  -2.0305644e-03   0.0000000e+00
   6.6601460e+00   5.4000000e+02  -2.0949851e-03   0.0000000e+00
   6.6701462e+00   5.4000000e+02  -2.1602739e-03   0.0000000e+00
   6.6801464e+00   5.3900000e+02  -2.2263995e-03   0.0000000e+00
   6.6901466e+00   5.3900000e+02  -2.2933277e-03   0.0000000e+00
   6.7001468e+00   5.3800000e+02  -2.3610222e-03   0.0000000e+00
   6.7101471e+00   5.3800000e+02  -2.4294440e-03   0.0000000e+00
   6.7201473e+00   5.3700000e+02  -2.4985513e-03   0.0000000e+00
   6.7301475e+00   5.3700000e+02  -2.5682999e-03   0.0000000e+00
   6.7401477e+00   5.3700000e+02  -2.6386427e-03   0.0000000e+00
   6.7501479e+00   5.3600000e+02  -2.7095297e-03   0.0000000e+00
   6.7601482e+00   5.3600000e+02  -2.7809080e-03   0.0000000e+00
   6.7701484e+00   5.3500000e+02  -2.8527220e-03   0.0000000e+00
   6.7801486e+00   5.3500000e+02  -2.9249127e-03   0.0000000e+00
   6.7901488e+00   5.3500000e+02  -2.9974182e-03   0.0000000e+00
   6.8001490e+00   5.3400000e+02  -3.0701733e-03   0.0000000e+00
   6.8101492e+00   5.3400000e+02  -3.1431097e-03   0.0000000e+00
   6.8201495e+00   5.3300000e+02  -3.2161558e-03   0.0000000e+00
   6.8301497e+00   5.3300000e+02  -3.2892366e-03   0.0000000e+00
   6.8401499e+00   5.3200000e+02  -3.3622735e-03   0.0000000e+00
   6.8501501e+00   5.3200000e+02  -3.4351848e-03   0.0000000e+00
   6.8601503e+00   5.3100000e+02  -3.5078850e-03   0.0000000e+00
   6.8701506e+00   5.3200000e+02  -3.5802850e-03   0.0000000e+00
   6.8801508e+00   5.3100000e+02  -3.6522922e-03   0.0000000e+00
   6.8901510e+00   5.3100000e+02  -3.7238103e-03   0.0000000e+00
   6.9001512e+00   5.3000000e+02  -3.7947390e-03   0.0000000e+00
   6.9101514e+00   5.3000000e+02  -3.8649747e-03   0.0000000e+00
   6.9201517e+00   5.2900000e+02  -3.9344094e-03   0.0000000e+00
   6.9301519e+00   5.2900000e+02  -4.0029316e-03   0.0000000e+00
   6.9401521e+00   5.2800000e+02  -4.0704258e-03   0.0000000e+00
   6.9501523e+00   5.2700000e+02  -4.1367725e-03   0.0000000e+00
   6.9601525e+00   5.2700000e+02  -4.2018483e-03   0.0000000e+00
   6.9701528e+00   5.2600000e+02  -4.2655257e-03   0.0000000e+00
   6.9801530e+00   5.2600000e+02  -4.3276732e-03   0.0000000e+00
   6.9901532e+00   5.2500000e+02  -4.3881552e-03   0.0000000e+00
   7.0001534e+00   5.2400000e+02  -4.4468321e-03   0.0000000e+00
   7.0101536e+00   5.2400000e+02  -4.5035602e-03   0.0000000e+00
   7.0201538e+00   5.2300000e+02  -4.5581916e-03   0.0000000e+00
   7.0301541e+00   5.2200000e+02  -4.6105744e-03   0.0000000e+00
   7.0401543e+00   5.2100000e+02  -4.6605526e-03   0.0000000e+00
   7.0501545e+00   5.2000000e+02  -4.7079660e-03   0.0000000e+00
   7.0601547e+00   5.2000000e+02  -4.7526505e-03   0.0000000e+00
   7.0701549e+00   5.1900000e+02  -4.7944376e-03   0.0000000e+00
   7.0801552e+00   5.1900000e+02  -4.8331550e-03   0.0000000e+00
   7.0901554e+00   5.1800000e+02  -4.8686263e-03   0.0000000e+00
   7.1001556e+00   5.1700000e+02  -4.9006711e-03   0.0000000e+00
   7.1101558e+00   5.1600000e+02  -4.9291051e-03   0.0000000e+00
   7.1201560e+00   5.1600000e+02  -4.9537399e-03   0.0000000e+00
   7.1301563e+00   5.1500000e+02  -4.9743834e-03   0.0000000e+00
   7.1401565e+00   5.1500000e+02  -4.9908397e-03   0.0000000e+00
   7.1501567e+00   5.1400000e+02  -5.0029089e-03   0.0000000e+00
   7.1601569e+00   5.1300000e+02  -5.0103878e-03   0.0000000e+00
   7.1701571e+00   5.1300000e+02  -5.0130692e-03   0.0000000e+00
   7.1801574e+00   5.1200000e+02  -5.0107426e-03   0.0000000e+00
   7.1901576e+00   5.1200000e+02  -5.0031942e-03   0.0000000e+00
   7.2001578e+00   5.1100000e+02  -4.9902066e-03   0.0000000e+00
   7.2101580e+00   5.1000000e+02  -4.9715593e-03   0.0000000e+00
   7.2201582e+00   5.1000000e+02  -4.9470288e-03   0.0000000e+00
   7.2301585e+00   5.0900000e+02  -4.9163883e-03   0.0000000e+00
   7.2401587e+00   5.0900000e+02  -4.8794085e-03   0.0000000e+00
   7.2501589e+00   5.0800000e+02  -4.8358573e-03   0.0000000e+00
   7.2601591e+00   5.0800000e+02  -4.7854999e-03   0.0000000e+00
   7.2701593e+00   5.0700000e+02  -4.7280992e-03   0.0000000e+00
   7.2801595e+00   5.0700000e+02  -4.6634159e-03   0.0000000e+00
   7.2901598e+00   5.0600000e+02  -4.5912087e-03   0.0000000e+00
   7.3001600e+00   5.0500000e+02  -4.5112341e-03   0.0000000e+00
   7.3101602e+00   5.0500000e+02  -4.4232474e-03   0.0000000e+00
   7.3201604e+00   5.0500000e+02  -4.3270021e-03   0.0000000e+00
   7.3301606e+00   5.0400000e+02  -4.2222506e-03   0.0000000e+00
   7.3401609e+00   5.0400000e+02  -4.1087441e-03   0.0000000e+00
   7.3501611e+00   5.0300000e+02  -3.9862333e-03   0.0000000e+00
   7.3601613e+00   5.0200000e+02  -3.8544680e-03   0.0000000e+00
   7.3701615e+00   5.0200000e+02  -3.7131980e-03   0.0000000e+00
   7.3801617e+00   5.0100000e+02  -3.5621728e-03   0.0000000e+00
   7.3901620e+00   5.0000000e+02  -3.4011425e-03   0.0000000e+00
   7.4001622e+00   5.0000000e+02  -3.2298575e-03   0.0000000e+00
   7.4101624e+00   4.9900000e+02  -3.0480690e-03   0.0000000e+00
   7.4201626e+00   4.9900000e+02  -2.8555294e-03   0.0000000e+00
   7.4301628e+00   4.9900000e+02  -2.6519926e-03   0.0000000e+00
   7.4401631e+00   4.9700000e+02  -2.4372142e-03   0.0000000e+00
   7.4501633e+00   4.9700000e+02  -2.2109520e-03   0.0000000e+00
   7.4601635e+00   4.9700000e+02  -1.9729663e-03   0.0000000e+00
   7.4701637e+00   4.9700000e+02  -1.7230201e-03   0.0000000e+00
   7.4801639e+00   4.9700000e+02  -1.4608798e-03   0.0000000e+00
   7.4901641e+00   4.9600000e+02  -1.1863151e-03   0.0000000e+00
   7.5001644e+00   4.9500000e+02  -8.9909998e-04   0.0000000e+00
   7.5101646e+00   4.9500000e+02  -5.9901262e-04   0.0000000e+00
   7.5201648e+00   4.9500000e+02  -2.8583603e-04   0.0000000e+00
   7.5301650e+00   4.9400000e+02   4.0641521e-05   0.0000000e+00
   7.5401652e+00   4.9300000e+02   3.8062616e-04   0.0000000e+00
   7.5501655e+00   4.9300000e+02   7.3431792e-04   0.0000000e+00
   7.5601657e+00   4.9300000e+02   1.1019102e-03   0.0000000e+00
   7.5701659e+00   4.9200000e+02   1.4835896e-03   0.0000000e+00
   7.5801661e+00   4.9200000e+02   1.8795351e-03   0.0000000e+00
   7.5901663e+00   4.9100000e+02   2.2899176e-03   0.0000000e+00
   7.6001666e+00   4.9100000e+02   2.7148997e-03   0.0000000e+00
   7.6101668e+00   4.9100000e+02   3.1546351e-03   0.0000000e+00
   7.6201670e+00   4.9000000e+02   3.6092679e-03   0.0000000e+00
   7.6301672e+00   4.9000000e+02   4.0789324e-03   0.0000000e+00
   7.6401674e+00   4.8900000e+02   4.5637521e-03   0.0000000e+00
   7.6501677e+00   4.8900000e+02   5.0638398e-03   0.0000000e+00
   7.6601679e+00   4.8900000e+02   5.5792966e-03   0.0000000e+00
   7.6701681e+00   4.8900000e+02   6.1102114e-03   0.0000000e+00
   7.6801683e+00   4.8800000e+02   6.6566606e-03   0.0000000e+00
   7.6901685e+00   4.8800000e+02   7.2187071e-03   0.0000000e+00
   7.7001688e+00   4.8700000e+02   7.7964003e-03   0.0000000e+00
   7.7101690e+00   4.8700000e+02   8.3897750e-03   0.0000000e+00
   7.7201692e+00   4.8700000e+02   8.9988514e-03   0.0000000e+00
   7.7301694e+00   4.8600000e+02   9.6236336e-03   0.0000000e+00
   7.7401696e+00   4.8600000e+02   1.0264110e-02   0.0000000e+00
   7.7501698e+00   4.8600000e+02   1.0920253e-02   0.0000000e+00
   7.7601701e+00   4.8500000e+02   1.1592016e-02   0.0000000e+00
   7.7701703e+00   4.8500000e+02   1.2279335e-02   0.0000000e+00
   7.7801705e+00   4.8400000e+02   1.2982130e-02   0.0000000e+00
   7.7901707e+00   4.8400000e+02   1.3700298e-02   0.0000000e+00
   7.8001709e+00   4.8300000e+02   1.4433720e-02   0.0000000e+00
   7.8101712e+00   4.8300000e+02   1.5182253e-02   0.0000000e+00
   7.8201714e+00   4.8300000e+02   1.5945737e-02   0.0000000e+00
   7.8301716e+00   4.8200000e+02   1.6723988e-02   0.0000000e+00
   7.8401718e+00   4.8100000e+02   1.7516800e-02   0.0000000e+00
   7.8501720e+00   4.8100000e+02   1.8323946e-02   0.0000000e+00
   7.8601723e+00   4.8000000e+02   1.9145175e-02   0.0000000e+00
   7.8701725e+00   4.8100000e+02   1.9980211e-02   0.0000000e+00
   7.8801727e+00   4.8000000e+02   2.0828756e-02   0.0000000e+00
   7.8901729e+00   4.8000000e+02   2.1690485e-02   0.0000000e+00
   7.9001731e+00   4.7900000e+02   2.2565048e-02   0.0000000e+00
   7.9101734e+00   4.7900000e+02   2.3452070e-02   0.0000000e+00
   7.9201736e+00   4.7900000e+02   2.4351149e-02   0.0000000e+00
   7.9301738e+00   4.7800000e+02   2.5261854e-02   0.0000000e+00
   7.9401740e+00   4.7800000e+02   2.6183729e-02   0.0000000e+00
   7.9501742e+00   4.7800000e+02   2.7116288e-02   0.0000000e+00
   7.9601745e+00   4.7800000e+02   2.8059018e-02   0.0000000e+00
   7.9701747e+00   4.7700000e+02   2.9011375e-02   0.0000000e+00
   7.9801749e+00   4.7700000e+02   2.9972787e-02   0.0000000e+00
   7.9901751e+00   4.7700000e+02   3.0942651e-02   0.0000000e+00
   8.0001753e+00   4.7600000e+02   3.1920334e-02   0.0000000e+00
   8.0101755e+00   4.7600000e+02   3.2905172e-02   0.0000000e+00
   8.0201758e+00   4.7600000e+02   3.3896468e-02   0.0000000e+00
   8.0301760e+00   4.7600000e+02   3.4893497e-02   0.0000000e+00
   8.0401762e+00   4.7600000e+02   3.5895499e-02   0.0000000e+00
   8.0501764e+00   4.7600000e+02   3.6901681e-02   0.0000000e+00
   8.0601766e+00   4.7500000e+02   3.7911221e-02   0.0000000e+00
   8.0701769e+00   4.7600000e+02   3.8923259e-02   0.0000000e+00
   8.0801771e+00   4.7600000e+02   3.9936907e-02   0.0000000e+00
   8.0901773e+00   4.7500000e+02   4.0951239e-02   0.0000000e+00
   8.1001775e+00   4.7500000e+02   4.1965297e-02   0.0000000e+00
   8.1101777e+00   4.7400000e+02   4.2978091e-02   0.0000000e+00
   8.1201780e+00   4.7500000e+02   4.3988594e-02   0.0000000e+00
   8.1301782e+00   4.7400000e+02   4.4995747e-02   0.0000000e+00
   8.1401784e+00   4.7400000e+02   4.5998454e-02   0.0000000e+00
   8.1501786e+00   4.7400000e+02   4.6995588e-02   0.0000000e+00
   8.1601788e+00   4.7400000e+02   4.7985986e-02   0.0000000e+00
   8.1701791e+00   4.7400000e+02   4.8968451e-02   0.0000000e+00
   8.1801793e+00   4.7400000e+02   4.9941751e-02   0.0000000e+00
   8.1901795e+00   4.7400000e+02   5.0904621e-02   0.0000000e+00
   8.2001797e+00   4.7300000e+02   5.1855761e-02   0.0000000e+00
   8.2101799e+00   4.7300000e+02   5.2793839e-02   0.0000000e+00
   8.2201801e+00   4.7300000e+02   5.3717486e-02   0.0000000e+00
   8.2301804e+00   4.7300000e+02   5.4625303e-02   0.0000000e+00
   8.2401806e+00   4.7200000e+02   5.5515857e-02   0.0000000e+00
   8.2501808e+00   4.7300000e+02   5.6387681e-02   0.0000000e+00
   8.2601810e+00   4.7200000e+02   5.7239277e-02   0.0000000e+00
   8.2701812e+00   4.7200000e+02   5.8069114e-02   0.0000000e+00
   8.2801815e+00   4.7200000e+02   5.8875632e-02   0.0000000e+00
   8.2901817e+00   4.7200000e+02   5.9657237e-02   0.0000000e+00
   8.3001819e+00   4.7200000e+02   6.0412307e-02   0.0000000e+00
   8.3101821e+00   4.7200000e+02   6.1139190e-02   0.0000000e+00
   8.3201823e+00   4.7100000e+02   6.1836203e-02   0.0000000e+00
   8.3301826e+00   4.7100000e+02   6.2501639e-02   0.0000000e+00
   8.3401828e+00   4.7100000e+02   6.3133760e-02   0.0000000e+00
   8.3501830e+00   4.7100000e+02   6.3730804e-02   0.0000000e+00
   8.3601832e+00   4.7100000e+02   6.4290980e-02   0.0000000e+00
   8.3701834e+00   4.7000000e+02   6.4812476e-02   0.0000000e+00
   8.3801837e+00   4.7000000e+02   6.5293455e-02   0.0000000e+00
   8.3901839e+00   4.7000000e+02   6.5732057e-02   0.0000000e+00
   8.4001841e+00   4.6900000e+02   6.6126401e-02   0.0000000e+00
   8.4101843e+00   4.6900000e+02   6.6474587e-02   0.0000000e+00
   8.4201845e+00   4.6900000e+02   6.6774694e-02   0.0000000e+00
   8.4301848e+00   4.6800000e+02   6.7024785e-02   0.0000000e+00
   8.4401850e+00   4.6800000e+02   6.7222906e-02   0.0000000e+00
   8.4501852e+00   4.6700000e+02   6.7367089e-02   0.0000000e+00
   8.4601854e+00   4.6700000e+02   6.7455352e-02   0.0000000e+00
   8.4701856e+00   4.6700000e+02   6.7485702e-02   0.0000000e+00
   8.4801858e+00   4.6700000e+02   6.7456135e-02   0.0000000e+00
   8.4901861e+00   4.6600000e+02   6.7364639e-02   0.0000000e+00
   8.5001863e+00   4.6700000e+02   6.7209197e-02   0.0000000e+00
   8.5101865e+00   4.6600000e+02   6.6987785e-02   0.0000000e+00
   8.5201867e+00   4.6600000e+02   6.6698377e-02   0.0000000e+00
   8.5301869e+00   4.6500000e+02   6.6338946e-02   0.0000000e+00
   8.5401872e+00   4.6500000e+02   6.5907467e-02   0.0000000e+00
   8.5501874e+00   4.6500000e+02   6.5401916e-02   0.0000000e+00
   8.5601876e+00   4.6500000e+02   6.4820276e-02   0.0000000e+00
   8.5701878e+00   4.6400000e+02   6.4160537e-02   0.0000000e+00
   8.5801880e+00   4.6400000e+02   6.3420698e-02   0.0000000e+00
   8.5901883e+00   4.6400000e+02   6.2598771e-02   0.0000000e+00
   8.6001885e+00   4.6300000e+02   6.1692782e-02   0.0000000e+00
   8.6101887e+00   4.6300000e+02   6.0700773e-02   0.0000000e+00
   8.6201889e+00   4.6400000e+02   5.9620806e-02   0.0000000e+00
   8.6301891e+00   4.6300000e+02   5.8450965e-02   0.0000000e+00
   8.6401894e+00   4.6300000e+02   5.7189357e-02   0.0000000e+00
   8.6501896e+00   4.6300000e+02   5.5834119e-02   0.0000000e+00
   8.6601898e+00   4.6300000e+02   5.4383415e-02   0.0000000e+00
   8.6701900e+00   4.6200000e+02   5.2835441e-02   0.0000000e+00
   8.6801902e+00   4.6200000e+02   5.1188432e-02   0.0000000e+00
   8.6901904e+00   4.6200000e+02   4.9440657e-02   0.0000000e+00
   8.7001907e+00   4.6200000e+02   4.7590428e-02   0.0000000e+00
   8.7101909e+00   4.6200000e+02   4.5636101e-02   0.0000000e+00
   8.7201911e+00   4.6200000e+02   4.3576080e-02   0.0000000e+00
   8.7301913e+00   4.6200000e+02   4.1408817e-02   0.0000000e+00
   8.7401915e+00   4.6200000e+02   3.9132818e-02   0.0000000e+00
   8.7501918e+00   4.6100000e+02   3.6746645e-02   0.0000000e+00
   8.7601920e+00   4.6100000e+02   3.4248920e-02   0.0000000e+00
   8.7701922e+00   4.6000000e+02   3.1638327e-02   0.0000000e+00
   8.7801924e+00   4.6000000e+02   2.8913617e-02   0.0000000e+00
   8.7901926e+00   4.6000000e+02   2.6073608e-02   0.0000000e+00
   8.8001929e+00   4.6000000e+02   2.3117191e-02   0.0000000e+00
   8.8101931e+00   4.6000000e+02   2.0043334e-02   0.0000000e+00
   8.8201933e+00   4.6000000e+02   1.6851083e-02   0.0000000e+00
   8.8301935e+00   4.5900000e+02   1.3539566e-02   0.0000000e+00
   8.8401937e+00   4.5900000e+02   1.0107996e-02   0.0000000e+00
   8.8501940e+00   4.5900000e+02   6.5556758e-03   0.0000000e+00
   8.8601942e+00   4.5900000e+02   2.8820015e-03   0.0000000e+00
   8.8701944e+00   4.5800000e+02  -9.1353656e-04   0.0000000e+00
   8.8801946e+00   4.5800000e+02  -4.8313484e-03   0.0000000e+00
   8.8901948e+00   4.5700000e+02  -8.8717415e-03   0.0000000e+00
   8.9001951e+00   4.5700000e+02  -1.3034918e-02   0.0000000e+00
   8.9101953e+00   4.5600000e+02  -1.7320969e-02   0.0000000e+00
   8.9201955e+00   4.5600000e+02  -2.1729876e-02   0.0000000e+00
   8.9301957e+00   4.5500000e+02  -2.6261501e-02   0.0000000e+00
   8.9401959e+00   4.5500000e+02  -3.0915591e-02   0.0000000e+00
   8.9501961e+00   4.5400000e+02  -3.5691767e-02   0.0000000e+00
   8.9601964e+00   4.5400000e+02  -4.0589524e-02   0.0000000e+00
   8.9701966e+00   4.5300000e+02  -4.5608231e-02   0.0000000e+00
   8.9801968e+00   4.5300000e+02  -5.0747123e-02   0.0000000e+00
   8.9901970e+00   4.5100000e+02  -5.6005299e-02   0.0000000e+00
   9.0001972e+00   4.5100000e+02  -6.1381720e-02   0.0000000e+00
   9.0101975e+00   4.5000000e+02  -6.6875205e-02   0.0000000e+00
   9.0201977e+00   4.5000000e+02  -7.2484431e-02   0.0000000e+00
   9.0301979e+00   4.4900000e+02  -7.8207923e-02   0.0000000e+00
   9.0401981e+00   4.4900000e+02  -8.4044059e-02   0.0000000e+00
   9.0501983e+00   4.4800000e+02  -8.9991064e-02   0.0000000e+00
   9.0601986e+00   4.4700000e+02  -9.6047004e-02   0.0000000e+00
   9.0701988e+00   4.4700000e+02  -1.0220979e-01   0.0000000e+00
   9.0801990e+00   4.4700000e+02  -1.0847717e-01   0.0000000e+00
   9.0901992e+00   4.4600000e+02  -1.1484672e-01   0.0000000e+00
   9.1001994e+00   4.4600000e+02  -1.2131587e-01   0.0000000e+00
   9.1101997e+00   4.4600000e+02  -1.2788187e-01   0.0000000e+00
   9.1201999e+00   4.4500000e+02  -1.3454179e-01   0.0000000e+00
   9.1302001e+00   4.4600000e+02  -1.4129254e-01   0.0000000e+00
   9.1402003e+00   4.4400000e+02  -1.4813085e-01   0.0000000e+00
   9.1502005e+00   4.4400000e+02  -1.5505328e-01   0.0000000e+00
   9.1602007e+00   4.4400000e+02  -1.6205621e-01   0.0000000e+00
   9.1702010e+00   4.4300000e+02  -1.6913582e-01   0.0000000e+00
   9.1802012e+00   4.4300000e+02  -1.7628815e-01   0.0000000e+00
   9.1902014e+00   4.4200000e+02  -1.8350902e-01   0.0000000e+00
   9.2002016e+00   4.4200000e+02  -1.9079408e-01   0.0000000e+00
   9.2102018e+00   4.4100000e+02  -1.9813879e-01   0.0000000e+00
   9.2202021e+00   4.4100000e+02  -2.0553844e-01   0.0000000e+00
   9.2302023e+00   4.4100000e+02  -2.1298812e-01   0.0000000e+00
   9.2402025e+00   4.4100000e+02  -2.2048272e-01   0.0000000e+00
   9.2502027e+00   4.4100000e+02  -2.2801698e-01   0.0000000e+00
   9.2602029e+00   4.4100000e+02  -2.3558542e-01   0.0000000e+00
   9.2702032e+00   4.4000000e+02  -2.4318238e-01   0.0000000e+00
   9.2802034e+00   4.4100000e+02  -2.5080202e-01   0.0000000e+00
   9.2902036e+00   4.4100000e+02  -2.5843831e-01   0.0000000e+00
   9.3002038e+00   4.4100000e+02  -2.6608502e-01   0.0000000e+00
   9.3102040e+00   4.4100000e+02  -2.7373576e-01   0.0000000e+00
   9.3202043e+00   4.4100000e+02  -2.8138393e-01   0.0000000e+00
   9.3302045e+00   4.4100000e+02  -2.8902276e-01   0.0000000e+00
   9.3402047e+00   4.4100000e+02  -2.9664530e-01   0.0000000e+00
   9.3502049e+00   4.4100000e+02  -3.0424440e-01   0.0000000e+00
   9.3602051e+00   4.4100000e+02  -3.1181276e-01   0.0000000e+00
   9.3702054e+00   4.4100000e+02  -3.1934288e-01   0.0000000e+00
   9.3802056e+00   4.4100000e+02  -3.2682709e-01   0.0000000e+00
   9.3902058e+00   4.4200000e+02  -3.3425756e-01   0.0000000e+00
   9.4002060e+00   4.4200000e+02  -3.4162627e-01   0.0000000e+00
   9.4102062e+00   4.4200000e+02  -3.4892504e-01   0.0000000e+00
   9.4202064e+00   4.4200000e+02  -3.5614555e-01   0.0000000e+00
   9.4302067e+00   4.4300000e+02  -3.6327928e-01   0.0000000e+00
   9.4402069e+00   4.4300000e+02  -3.7031759e-01   0.0000000e+00
   9.4502071e+00   4.4300000e+02  -3.7725166e-01   0.0000000e+00
   9.4602073e+00   4.4400000e+02  -3.8407253e-01   0.0000000e+00
   9.4702075e+00   4.4400000e+02  -3.9077112e-01   0.0000000e+00
   9.4802078e+00   4.4400000e+02  -3.9733817e-01   0.0000000e+00
   9.4902080e+00   4.4400000e+02  -4.0376431e-01   0.0000000e+00
   9.5002082e+00   4.4500000e+02  -4.1004004e-01   0.0000000e+00
   9.5102084e+00   4.4500000e+02  -4.1615573e-01   0.0000000e+00
   9.5202086e+00   4.4600000e+02  -4.2210164e-01   0.0000000e+00
   9.5302089e+00   4.4600000e+02  -4.2786791e-01   0.0000000e+00
   9.5402091e+00   4.4600000e+02  -4.3344458e-01   0.0000000e+00
   9.5502093e+00   4.4700000e+02  -4.3882159e-01   0.0000000e+00
   9.5602095e+00   4.4700000e+02  -4.4398878e-01   0.0000000e+00
   9.5702097e+00   4.4700000e+02  -4.4893592e-01   0.0000000e+00
   9.5802100e+00   4.4800000e+02  -4.5365269e-01   0.0000000e+00
   9.5902102e+00   4.4800000e+02  -4.5812870e-01   0.0000000e+00
   9.6002104e+00   4.4900000e+02  -4.6235351e-01   0.0000000e+00
   9.6102106e+00   4.4900000e+02  -4.6631660e-01   0.0000000e+00
   9.6202108e+00   4.5000000e+02  -4.7000744e-01   0.0000000e+00
   9.6302110e+00   4.4900000e+02  -4.7341543e-01   0.0000000e+00
   9.6402113e+00   4.5000000e+02  -4.7652996e-01   0.0000000e+00
   9.6502115e+00   4.5000000e+02  -4.7934039e-01   0.0000000e+00
   9.6602117e+00   4.5000000e+02  -4.8183607e-01   0.0000000e+00
   9.6702119e+00   4.5100000e+02  -4.8400637e-01   0.0000000e+00
   9.6802121e+00   4.5100000e+02  -4.8584064e-01   0.0000000e+00
   9.6902124e+00   4.5100000e+02  -4.8732826e-01   0.0000000e+00
   9.7002126e+00   4.5200000e+02  -4.8845865e-01   0.0000000e+00
   9.7102128e+00   4.5200000e+02  -4.8922126e-01   0.0000000e+00
   9.7202130e+00   4.5200000e+02  -4.8960559e-01   0.0000000e+00
   9.7302132e+00   4.5300000e+02  -4.8960121e-01   0.0000000e+00
   9.7402135e+00   4.5300000e+02  -4.8919776e-01   0.0000000e+00
   9.7502137e+00   4.5400000e+02  -4.8838496e-01   0.0000000e+00
   9.7602139e+00   4.5400000e+02  -4.8715263e-01   0.0000000e+00
   9.7702141e+00   4.5400000e+02  -4.8549069e-01   0.0000000e+00
   9.7802143e+00   4.5400000e+02  -4.8338920e-01   0.0000000e+00
   9.7902146e+00   4.5400000e+02  -4.8083833e-01   0.0000000e+00
   9.8002148e+00   4.5500000e+02  -4.7782841e-01   0.0000000e+00
   9.8102150e+00   4.5500000e+02  -4.7434991e-01   0.0000000e+00
   9.8202152e+00   4.5500000e+02  -4.7039350e-01   0.0000000e+00
   9.8302154e+00   4.5500000e+02  -4.6594999e-01   0.0000000e+00
   9.8402157e+00   4.5500000e+02  -4.6101043e-01   0.0000000e+00
   9.8502159e+00   4.5500000e+02  -4.5556603e-01   0.0000000e+00
   9.8602161e+00   4.5600000e+02  -4.4960828e-01   0.0000000e+00
   9.8702163e+00   4.5600000e+02  -4.4312884e-01   0.0000000e+00
   9.8802165e+00   4.5600000e+02  -4.3611968e-01   0.0000000e+00
   9.8902167e+00   4.5700000e+02  -4.2857298e-01   0.0000000e+00
   9.9002170e+00   4.5700000e+02  -4.2048124e-01   0.0000000e+00
   9.9102172e+00   4.5700000e+02  -4.1183721e-01   0.0000000e+00
   9.9202174e+00   4.5700000e+02  -4.0263396e-01   0.0000000e+00
   9.9302176e+00   4.5800000e+02  -3.9286488e-01   0.0000000e+00
   9.9402178e+00   4.5800000e+02  -3.8252369e-01   0.0000000e+00
   9.9502181e+00   4.5700000e+02  -3.7160444e-01   0.0000000e+00
   9.9602183e+00   4.5800000e+02  -3.6010155e-01   0.0000000e+00
   9.9702185e+00   4.5800000e+02  -3.4800981e-01   0.0000000e+00
   9.9802187e+00   4.5800000e+02  -3.3532439e-01   0.0000000e+00
   9.9902189e+00   4.5800000e+02  -3.2204086e-01   0.0000000e+00
   1.0000219e+01   4.5800000e+02  -3.0815521e-01   0.0000000e+00
   1.0010219e+01   4.5900000e+02  -2.9366383e-01   0.0000000e+00
   1.0020220e+01   4.5800000e+02  -2.7856358e-01   0.0000000e+00
   1.0030220e+01   4.5900000e+02  -2.6285176e-01   0.0000000e+00
   1.0040220e+01   4.5800000e+02  -2.4652612e-01   0.0000000e+00
   1.0050220e+01   4.5900000e+02  -2.2958492e-01   0.0000000e+00
   1.0060220e+01   4.5800000e+02  -2.1202688e-01   0.0000000e+00
   1.0070221e+01   4.5800000e+02  -1.9385125e-01   0.0000000e+00
   1.0080221e+01   4.5900000e+02  -1.7505777e-01   0.0000000e+00
   1.0090221e+01   4.5900000e+02  -1.5564674e-01   0.0000000e+00
   1.0100221e+01   4.5900000e+02  -1.3561898e-01   0.0000000e+00
   1.0110222e+01   4.5900000e+02  -1.1497586e-01   0.0000000e+00
   1.0120222e+01   4.5900000e+02  -9.3719332e-02   0.0000000e+00
   1.0130222e+01   4.5900000e+02  -7.1851912e-02   0.0000000e+00
   1.0140222e+01   4.5900000e+02  -4.9376708e-02   0.0000000e+00
   1.0150222e+01   4.5900000e+02  -2.6297424e-02   0.0000000e+00
   1.0160223e+01   4.6000000e+02  -2.6183748e-03   0.0000000e+00
   1.0170223e+01   4.5900000e+02   2.1655507e-02   0.0000000e+00
   1.0180223e+01   4.6000000e+02   4.6518660e-02   0.0000000e+00
   1.0190223e+01   4.6000000e+02   7.1964883e-02   0.0000000e+00
   1.0200224e+01   4.6000000e+02   9.7987329e-02   0.0000000e+00
   1.0210224e+01   4.6000000e+02   1.2457850e-01   0.0000000e+00
   1.0220224e+01   4.6000000e+02   1.5173021e-01   0.0000000e+00
   1.0230224e+01   4.6000000e+02   1.7943364e-01   0.0000000e+00
   1.0240224e+01   4.6000000e+02   2.0767926e-01   0.0000000e+00
   1.0250225e+01   4.6000000e+02   2.3645686e-01   0.0000000e+00
   1.0260225e+01   4.6100000e+02   2.6575555e-01   0.0000000e+00
   1.0270225e+01   4.6200000e+02   2.9556372e-01   0.0000000e+00
   1.0280225e+01   4.6100000e+02   3.2586908e-01   0.0000000e+00
   1.0290226e+01   4.6100000e+02   3.5665860e-01   0.0000000e+00
   1.0300226e+01   4.6200000e+02   3.8791858e-01   0.0000000e+00
   1.0310226e+01   4.6200000e+02   4.1963455e-01   0.0000000e+00
   1.0320226e+01   4.6200000e+02   4.5179137e-01   0.0000000e+00
   1.0330226e+01   4.6200000e+02   4.8437314e-01   0.0000000e+00
   1.0340227e+01   4.6300000e+02   5.1736325e-01   0.0000000e+00
   1.0350227e+01   4.6300000e+02   5.5074437e-01   0.0000000e+00
   1.0360227e+01   4.6300000e+02   5.8449843e-01   0.0000000e+00
   1.0370227e+01   4.6300000e+02   6.1860664e-01   0.0000000e+00
   1.0380227e+01   4.6300000e+02   6.5304948e-01   0.0000000e+00
   1.0390228e+01   4.6400000e+02   6.8780671e-01   0.0000000e+00
   1.0400228e+01   4.6400000e+02   7.2285737e-01   0.0000000e+00
   1.0410228e+01   4.6400000e+02   7.5817977e-01   0.0000000e+00
   1.0420228e+01   4.6400000e+02   7.9375150e-01   0.0000000e+00
   1.0430229e+01   4.6500000e+02   8.2954946e-01   0.0000000e+00
   1.0440229e+01   4.6400000e+02   8.6554981e-01   0.0000000e+00
   1.0450229e+01   4.6500000e+02   9.0172805e-01   0.0000000e+00
   1.0460229e+01   4.6500000e+02   9.3805895e-01   0.0000000e+00
   1.0470229e+01   4.6500000e+02   9.7451659e-01   0.0000000e+00
   1.0480230e+01   4.6500000e+02   1.0110744e+00   0.0000000e+00
   1.0490230e+01   4.6500000e+02   1.0477051e+00   0.0000000e+00
   1.0500230e+01   4.6500000e+02   1.0843808e+00   0.0000000e+00
   1.0510230e+01   4.6600000e+02   1.1210730e+00   0.0000000e+00
   1.0520231e+01   4.6600000e+02   1.1577523e+00   0.0000000e+00
   1.0530231e+01   4.6600000e+02   1.1943890e+00   0.0000000e+00
   1.0540231e+01   4.6600000e+02   1.2309527e+00   0.0000000e+00
   1.0550231e+01   4.6600000e+02   1.2674122e+00   0.0000000e+00
   1.0560231e+01   4.6700000e+02   1.3037359e+00   0.0000000e+00
   1.0570232e+01   4.6700000e+02   1.3398917e+00   0.0000000e+00
   1.0580232e+01   4.6700000e+02   1.3758467e+00   0.0000000e+00
   1.0590232e+01   4.6700000e+02   1.4115677e+00   0.0000000e+00
   1.0600232e+01   4.6700000e+02   1.4470209e+00   0.0000000e+00
   1.0610233e+01   4.6800000e+02   1.4821718e+00   0.0000000e+00
   1.0620233e+01   4.6800000e+02   1.5169858e+00   0.0000000e+00
   1.0630233e+01   4.6800000e+02   1.5514276e+00   0.0000000e+00
   1.0640233e+01   4.6800000e+02   1.5854614e+00   0.0000000e+00
   1.0650233e+01   4.6800000e+02   1.6190511e+00   0.0000000e+00
   1.0660234e+01   4.6800000e+02   1.6521603e+00   0.0000000e+00
   1.0670234e+01   4.6900000e+02   1.6847521e+00   0.0000000e+00
   1.0680234e+01   4.6800000e+02   1.7167891e+00   0.0000000e+00
   1.0690234e+01   4.6900000e+02   1.7482340e+00   0.0000000e+00
   1.0700234e+01   4.6900000e+02   1.7790488e+00   0.0000000e+00
   1.0710235e+01   4.7000000e+02   1.8091955e+00   0.0000000e+00
   1.0720235e+01   4.7000000e+02   1.8386356e+00   0.0000000e+00
   1.0730235e+01   4.7000000e+02   1.8673307e+00   0.0000000e+00
   1.0740235e+01   4.7000000e+02   1.8952420e+00   0.0000000e+00
   1.0750236e+01   4.7000000e+02   1.9223307e+00   0.0000000e+00
   1.0760236e+01   4.7000000e+02   1.9485577e+00   0.0000000e+00
   1.0770236e+01   4.7000000e+02   1.9738839e+00   0.0000000e+00
   1.0780236e+01   4.7100000e+02   1.9982702e+00   0.0000000e+00
   1.0790236e+01   4.7100000e+02   2.0216774e+00   0.0000000e+00
   1.0800237e+01   4.7100000e+02   2.0440664e+00   0.0000000e+00
   1.0810237e+01   4.7100000e+02   2.0653980e+00   0.0000000e+00
   1.0820237e+01   4.7100000e+02   2.0856333e+00   0.0000000e+00
   1.0830237e+01   4.7200000e+02   2.1047332e+00   0.0000000e+00
   1.0840238e+01   4.7100000e+02   2.1226590e+00   0.0000000e+00
   1.0850238e+01   4.7100000e+02   2.1393722e+00   0.0000000e+00
   1.0860238e+01   4.7200000e+02   2.1548344e+00   0.0000000e+00
   1.0870238e+01   4.7200000e+02   2.1690075e+00   0.0000000e+00
   1.0880238e+01   4.7200000e+02   2.1818537e+00   0.0000000e+00
   1.0890239e+01   4.7200000e+02   2.1933355e+00   0.0000000e+00
   1.0900239e+01   4.7200000e+02   2.2034160e+00   0.0000000e+00
   1.0910239e+01   4.7300000e+02   2.2120583e+00   0.0000000e+00
   1.0920239e+01   4.7200000e+02   2.2192264e+00   0.0000000e+00
   1.0930240e+01   4.7200000e+02   2.2248845e+00   0.0000000e+00
   1.0940240e+01   4.7300000e+02   2.2289975e+00   0.0000000e+00
   1.0950240e+01   4.7300000e+02   2.2315308e+00   0.0000000e+00
   1.0960240e+01   4.7300000e+02   2.2324504e+00   0.0000000e+00
   1.0970240e+01   4.7400000e+02   2.2317231e+00   0.0000000e+00
   1.0980241e+01   4.7300000e+02   2.2293162e+00   0.0000000e+00
   1.0990241e+01   4.7300000e+02   2.2251979e+00   0.0000000e+00
   1.1000241e+01   4.7400000e+02   2.2193371e+00   0.0000000e+00
   1.1010241e+01   4.7400000e+02   2.2117036e+00   0.0000000e+00
   1.1020242e+01   4.7400000e+02   2.2022680e+00   0.0000000e+00
   1.1030242e+01   4.7400000e+02   2.1910019e+00   0.0000000e+00
   1.1040242e+01   4.7400000e+02   2.1778777e+00   0.0000000e+00
   1.1050242e+01   4.7500000e+02   2.1628689e+00   0.0000000e+00
   1.1060242e+01   4.7400000e+02   2.1459501e+00   0.0000000e+00
   1.1070243e+01   4.7400000e+02   2.1270968e+00   0.0000000e+00
   1.1080243e+01   4.7500000e+02   2.1062859e+00   0.0000000e+00
   1.1090243e+01   4.7500000e+02   2.0834950e+00   0.0000000e+00
   1.1100243e+01   4.7500000e+02   2.0587034e+00   0.0000000e+00
   1.1110243e+01   4.7500000e+02   2.0318914e+00   0.0000000e+00
   1.1120244e+01   4.7500000e+02   2.0030404e+00   0.0000000e+00
   1.1130244e+01   4.7500000e+02   1.9721335e+00   0.0000000e+00
   1.1140244e+01   4.7500000e+02   1.9391549e+00   0.0000000e+00
   1.1150244e+01   4.7500000e+02   1.9040903e+00   0.0000000e+00
   1.1160245e+01   4.7500000e+02   1.8669267e+00   0.0000000e+00
   1.1170245e+01   4.7500000e+02   1.8276527e+00   0.0000000e+00
   1.1180245e+01   4.7500000e+02   1.7862585e+00   0.0000000e+00
   1.1190245e+01   4.7500000e+02   1.7427355e+00   0.0000000e+00
   1.1200245e+01   4.7500000e+02   1.6970770e+00   0.0000000e+00
   1.1210246e+01   4.7500000e+02   1.6492778e+00   0.0000000e+00
   1.1220246e+01   4.7600000e+02   1.5993344e+00   0.0000000e+00
   1.1230246e+01   4.7500000e+02   1.5472448e+00   0.0000000e+00
   1.1240246e+01   4.7500000e+02   1.4930088e+00   0.0000000e+00
   1.1250247e+01   4.7600000e+02   1.4366281e+00   0.0000000e+00
   1.1260247e+01   4.7600000e+02   1.3781060e+00   0.0000000e+00
   1.1270247e+01   4.7600000e+02   1.3174477e+00   0.0000000e+00
   1.1280247e+01   4.7600000e+02   1.2546600e+00   0.0000000e+00
   1.1290247e+01   4.7600000e+02   1.1897518e+00   0.0000000e+00
   1.1300248e+01   4.7600000e+02   1.1227337e+00   0.0000000e+00
   1.1310248e+01   4.7600000e+02   1.0536185e+00   0.0000000e+00
   1.1320248e+01   4.7600000e+02   9.8242047e-01   0.0000000e+00
   1.1330248e+01   4.7600000e+02   9.0915618e-01   0.0000000e+00
   1.1340249e+01   4.7600000e+02   8.3384402e-01   0.0000000e+00
   1.1350249e+01   4.7600000e+02   7.5650438e-01   0.0000000e+00
   1.1360249e+01   4.7700000e+02   6.7715966e-01   0.0000000e+00
   1.1370249e+01   4.7700000e+02   5.9583427e-01   0.0000000e+00
   1.1380249e+01   4.7700000e+02   5.1255463e-01   0.0000000e+00
   1.1390250e+01   4.7700000e+02   4.2734924e-01   0.0000000e+00
   1.1400250e+01   4.7700000e+02   3.4024860e-01   0.0000000e+00
   1.1410250e+01   4.7700000e+02   2.5128531e-01   0.0000000e+00
   1.1420250e+01   4.7700000e+02   1.6049402e-01   0.0000000e+00
   1.1430250e+01   4.7700000e+02   6.7911462e-02   0.0000000e+00
   1.1440251e+01   4.7700000e+02  -2.6423563e-02   0.0000000e+00
   1.1450251e+01   4.7700000e+02  -1.2247017e-01   0.0000000e+00
   1.1460251e+01   4.7800000e+02  -2.2018540e-01   0.0000000e+00
   1.1470251e+01   4.7800000e+02  -3.1952420e-01   0.0000000e+00
   1.1480252e+01   4.7800000e+02  -4.2043946e-01   0.0000000e+00
   1.1490252e+01   4.7700000e+02  -5.2288200e-01   0.0000000e+00
   1.1500252e+01   4.7800000e+02  -6.2680055e-01   0.0000000e+00
   1.1510252e+01   4.7800000e+02  -7.3214182e-01   0.0000000e+00
   1.1520252e+01   4.7800000e+02  -8.3885047e-01   0.0000000e+00
   1.1530253e+01   4.7800000e+02  -9.4686910e-01   0.0000000e+00
   1.1540253e+01   4.7800000e+02  -1.0561383e+00   0.0000000e+00
   1.1550253e+01   4.7800000e+02  -1.1665968e+00   0.0000000e+00
   1.1560253e+01   4.7800000e+02  -1.2781811e+00   0.0000000e+00
   1.1570254e+01   4.7900000e+02  -1.3908259e+00   0.0000000e+00
   1.1580254e+01   4.7800000e+02  -1.5044639e+00   0.0000000e+00
   1.1590254e+01   4.7800000e+02  -1.6190261e+00   0.0000000e+00
   1.1600254e+01   4.7800000e+02  -1.7344413e+00   0.0000000e+00
   1.1610254e+01   4.7900000e+02  -1.8506366e+00   0.0000000e+00
   1.1620255e+01   4.7900000e+02  -1.9675373e+00   0.0000000e+00
   1.1630255e+01   4.7900000e+02  -2.0850669e+00   0.0000000e+00
   1.1640255e+01   4.7900000e+02  -2.2031472e+00   0.0000000e+00
   1.1650255e+01   4.7900000e+02  -2.3216981e+00   0.0000000e+00
   1.1660256e+01   4.7900000e+02  -2.4406379e+00   0.0000000e+00
   1.1670256e+01   4.8000000e+02  -2.5598835e+00   0.0000000e+00
   1.1680256e+01   4.8000000e+02  -2.6793500e+00   0.0000000e+00
   1.1690256e+01   4.8000000e+02  -2.7989509e+00   0.0000000e+00
   1.1700256e+01   4.8000000e+02  -2.9185983e+00   0.0000000e+00
   1.1710257e+01   4.8000000e+02  -3.0382028e+00   0.0000000e+00
   1.1720257e+01   4.8000000e+02  -3.1576738e+00   0.0000000e+00
   1.1730257e+01   4.8000000e+02  -3.2769192e+00   0.0000000e+00
   1.1740257e+01   4.8000000e+02  -3.3958455e+00   0.0000000e+00
   1.1750258e+01   4.8000000e+02  -3.5143583e+00   0.0000000e+00
   1.1760258e+01   4.8000000e+02  -3.6323618e+00   0.0000000e+00
   1.1770258e+01   4.8000000e+02  -3.7497591e+00   0.0000000e+00
   1.1780258e+01   4.8000000e+02  -3.8664523e+00   0.0000000e+00
   1.1790258e+01   4.8100000e+02  -3.9823427e+00   0.0000000e+00
   1.1800259e+01   4.8000000e+02  -4.0973305e+00   0.0000000e+00
   1.1810259e+01   4.8100000e+02  -4.2113151e+00   0.0000000e+00
   1.1820259e+01   4.8100000e+02  -4.3241951e+00   0.0000000e+00
   1.1830259e+01   4.8100000e+02  -4.4358686e+00   0.0000000e+00
   1.1840259e+01   4.8100000e+02  -4.5462330e+00   0.0000000e+00
   1.1850260e+01   4.8100000e+02  -4.6551849e+00   0.0000000e+00
   1.1860260e+01   4.8100000e+02  -4.7626209e+00   0.0000000e+00
   1.1870260e+01   4.8100000e+02  -4.8684369e+00   0.0000000e+00
   1.1880260e+01   4.8100000e+02  -4.9725286e+00   0.0000000e+00
   1.1890261e+01   4.8100000e+02  -5.0747915e+00   0.0000000e+00
   1.1900261e+01   4.8100000e+02  -5.1751210e+00   0.0000000e+00
   1.1910261e+01   4.8200000e+02  -5.2734123e+00   0.0000000e+00
   1.1920261e+01   4.8200000e+02  -5.3695608e+00   0.0000000e+00
   1.1930261e+01   4.8200000e+02  -5.4634620e+00   0.0000000e+00
   1.1940262e+01   4.8200000e+02  -5.5550116e+00   0.0000000e+00
   1.1950262e+01   4.8200000e+02  -5.6441056e+00   0.0000000e+00
   1.1960262e+01   4.8200000e+02  -5.7306403e+00   0.0000000e+00
   1.1970262e+01   4.8300000e+02  -5.8145127e+00   0.0000000e+00
   1.1980263e+01   4.8200000e+02  -5.8956203e+00   0.0000000e+00
   1.1990263e+01   4.8200000e+02  -5.9738611e+00   0.0000000e+00
   1.2000263e+01   4.8300000e+02  -6.0491342e+00   0.0000000e+00
   1.2010263e+01   4.8200000e+02  -6.1213393e+00   0.0000000e+00
   1.2020263e+01   4.8300000e+02  -6.1903771e+00   0.0000000e+00
   1.2030264e+01   4.8300000e+02  -6.2561496e+00   0.0000000e+00
   1.2040264e+01   4.8300000e+02  -6.3185595e+00   0.0000000e+00
   1.2050264e+01   4.8300000e+02  -6.3775112e+00   0.0000000e+00
   1.2060264e+01   4.8200000e+02  -6.4329102e+00   0.0000000e+00
   1.2070265e+01   4.8200000e+02  -6.4846635e+00   0.0000000e+00
   1.2080265e+01   4.8200000e+02  -6.5326796e+00   0.0000000e+00
   1.2090265e+01   4.8300000e+02  -6.5768687e+00   0.0000000e+00
   1.2100265e+01   4.8300000e+02  -6.6171429e+00   0.0000000e+00
   1.2110265e+01   4.8300000e+02  -6.6534157e+00   0.0000000e+00
   1.2120266e+01   4.8300000e+02  -6.6856028e+00   0.0000000e+00
   1.2130266e+01   4.8300000e+02  -6.7136221e+00   0.0000000e+00
   1.2140266e+01   4.8300000e+02  -6.7373933e+00   0.0000000e+00
   1.2150266e+01   4.8300000e+02  -6.7568384e+00   0.0000000e+00
   1.2160266e+01   4.8300000e+02  -6.7718819e+00   0.0000000e+00
   1.2170267e+01   4.8300000e+02  -6.7824504e+00   0.0000000e+00
   1.2180267e+01   4.8200000e+02  -6.7884732e+00   0.0000000e+00
   1.2190267e+01   4.8300000e+02  -6.7898822e+00   0.0000000e+00
   1.2200267e+01   4.8200000e+02  -6.7866119e+00   0.0000000e+00
   1.2210268e+01   4.8300000e+02  -6.7785996e+00   0.0000000e+00
   1.2220268e+01   4.8300000e+02  -6.7657854e+00   0.0000000e+00
   1.2230268e+01   4.8300000e+02  -6.7481125e+00   0.0000000e+00
   1.2240268e+01   4.8300000e+02  -6.7255269e+00   0.0000000e+00
   1.2250268e+01   4.8300000e+02  -6.6979779e+00   0.0000000e+00
   1.2260269e+01   4.8300000e+02  -6.6654180e+00   0.0000000e+00
   1.2270269e+01   4.8300000e+02  -6.6278028e+00   0.0000000e+00
   1.2280269e+01   4.8300000e+02  -6.5850915e+00   0.0000000e+00
   1.2290269e+01   4.8300000e+02  -6.5372465e+00   0.0000000e+00
   1.2300270e+01   4.8300000e+02  -6.4842339e+00   0.0000000e+00
   1.2310270e+01   4.8300000e+02  -6.4260233e+00   0.0000000e+00
   1.2320270e+01   4.8300000e+02  -6.3625879e+00   0.0000000e+00
   1.2330270e+01   4.8300000e+02  -6.2939048e+00   0.0000000e+00
   1.2340270e+01   4.8300000e+02  -6.2199546e+00   0.0000000e+00
   1.2350271e+01   4.8300000e+02  -6.1407221e+00   0.0000000e+00
   1.2360271e+01   4.8400000e+02  -6.0561957e+00   0.0000000e+00
   1.2370271e+01   4.8400000e+02  -5.9663680e+00   0.0000000e+00
   1.2380271e+01   4.8400000e+02  -5.8712354e+00   0.0000000e+00
   1.2390272e+01   4.8500000e+02  -5.7707987e+00   0.0000000e+00
   1.2400272e+01   4.8600000e+02  -5.6650625e+00   0.0000000e+00
   1.2410272e+01   4.8600000e+02  -5.5540357e+00   0.0000000e+00
   1.2420272e+01   4.8700000e+02  -5.4377316e+00   0.0000000e+00
   1.2430272e+01   4.8600000e+02  -5.3161675e+00   0.0000000e+00
   1.2440273e+01   4.8600000e+02  -5.1893652e+00   0.0000000e+00
   1.2450273e+01   4.8700000e+02  -5.0573506e+00   0.0000000e+00
   1.2460273e+01   4.8700000e+02  -4.9201542e+00   0.0000000e+00
   1.2470273e+01   4.8700000e+02  -4.7778108e+00   0.0000000e+00
   1.2480274e+01   4.8700000e+02  -4.6303596e+00   0.0000000e+00
   1.2490274e+01   4.8800000e+02  -4.4778443e+00   0.0000000e+00
   1.2500274e+01   4.8700000e+02  -4.3203129e+00   0.0000000e+00
   1.2510274e+01   4.8800000e+02  -4.1578181e+00   0.0000000e+00
   1.2520274e+01   4.8800000e+02  -3.9904170e+00   0.0000000e+00
   1.2530275e+01   4.8700000e+02  -3.8181710e+00   0.0000000e+00
   1.2540275e+01   4.8700000e+02  -3.6411462e+00   0.0000000e+00
   1.2550275e+01   4.8700000e+02  -3.4594131e+00   0.0000000e+00
   1.2560275e+01   4.8700000e+02  -3.2730468e+00   0.0000000e+00
   1.2570275e+01   4.8700000e+02  -3.0821266e+00   0.0000000e+00
   1.2580276e+01   4.8700000e+02  -2.8867365e+00   0.0000000e+00
   1.2590276e+01   4.8700000e+02  -2.6869649e+00   0.0000000e+00
   1.2600276e+01   4.8700000e+02  -2.4829046e+00   0.0000000e+00
   1.2610276e+01   4.8700000e+02  -2.2746526e+00   0.0000000e+00
   1.2620277e+01   4.8700000e+02  -2.0623106e+00   0.0000000e+00
   1.2630277e+01   4.8700000e+02  -1.8459843e+00   0.0000000e+00
   1.2640277e+01   4.8700000e+02  -1.6257840e+00   0.0000000e+00
   1.2650277e+01   4.8700000e+02  -1.4018240e+00   0.0000000e+00
   1.2660277e+01   4.8700000e+02  -1.1742229e+00   0.0000000e+00
   1.2670278e+01   4.8700000e+02  -9.4310348e-01   0.0000000e+00
   1.2680278e+01   4.8700000e+02  -7.0859249e-01   0.0000000e+00
   1.2690278e+01   4.8700000e+02  -4.7082085e-01   0.0000000e+00
   1.2700278e+01   4.8600000e+02  -2.2992338e-01   0.0000000e+00
   1.2710279e+01   4.8700000e+02   1.3961166e-02   0.0000000e+00
   1.2720279e+01   4.8600000e+02   2.6069021e-01   0.0000000e+00
   1.2730279e+01   4.8700000e+02   5.1011742e-01   0.0000000e+00
   1.2740279e+01   4.8700000e+02   7.6209277e-01   0.0000000e+00
   1.2750279e+01   4.8600000e+02   1.0164627e+00   0.0000000e+00
   1.2760280e+01   4.8700000e+02   1.2730700e+00   0.0000000e+00
   1.2770280e+01   4.8700000e+02   1.5317541e+00   0.0000000e+00
   1.2780280e+01   4.8700000e+02   1.7923513e+00   0.0000000e+00
   1.2790280e+01   4.8700000e+02   2.0546945e+00   0.0000000e+00
   1.2800281e+01   4.8800000e+02   2.3186133e+00   0.0000000e+00
   1.2810281e+01   4.8800000e+02   2.5839348e+00   0.0000000e+00
   1.2820281e+01   4.8800000e+02   2.8504826e+00   0.0000000e+00
   1.2830281e+01   4.8800000e+02   3.1180779e+00   0.0000000e+00
   1.2840281e+01   4.8800000e+02   3.3865392e+00   0.0000000e+00
   1.2850282e+01   4.8800000e+02   3.6556824e+00   0.0000000e+00
   1.2860282e+01   4.8800000e+02   3.9253208e+00   0.0000000e+00
   1.2870282e+01   4.8900000e+02   4.1952657e+00   0.0000000e+00
   1.2880282e+01   4.8900000e+02   4.4653261e+00   0.0000000e+00
   1.2890282e+01   4.8900000e+02   4.7353089e+00   0.0000000e+00
   1.2900283e+01   4.8800000e+02   5.0050193e+00   0.0000000e+00
   1.2910283e+01   4.9000000e+02   5.2742606e+00   0.0000000e+00
   1.2920283e+01   4.8900000e+02   5.5428344e+00   0.0000000e+00
   1.2930283e+01   4.8900000e+02   5.8105412e+00   0.0000000e+00
   1.2940284e+01   4.8900000e+02   6.0771798e+00   0.0000000e+00
   1.2950284e+01   4.8900000e+02   6.3425480e+00   0.0000000e+00
   1.2960284e+01   4.8900000e+02   6.6064427e+00   0.0000000e+00
   1.2970284e+01   4.8900000e+02   6.8686599e+00   0.0000000e+00
   1.2980284e+01   4.8900000e+02   7.1289948e+00   0.0000000e+00
   1.2990285e+01   4.9000000e+02   7.3872421e+00   0.0000000e+00
   1.3000285e+01   4.8900000e+02   7.6431962e+00   0.0000000e+00
   1.3010285e+01   4.8900000e+02   7.8966514e+00   0.0000000e+00
   1.3020285e+01   4.8900000e+02   8.1474017e+00   0.0000000e+00
   1.3030286e+01   4.8900000e+02   8.3952416e+00   0.0000000e+00
   1.3040286e+01   4.9000000e+02   8.6399655e+00   0.0000000e+00
   1.3050286e+01   4.8900000e+02   8.8813687e+00   0.0000000e+00
   1.3060286e+01   4.8900000e+02   9.1192467e+00   0.0000000e+00
   1.3070286e+01   4.8900000e+02   9.3533963e+00   0.0000000e+00
   1.3080287e+01   4.8900000e+02   9.5836149e+00   0.0000000e+00
   1.3090287e+01   4.8800000e+02   9.8097013e+00   0.0000000e+00
   1.3100287e+01   4.8900000e+02   1.0031456e+01   0.0000000e+00
   1.3110287e+01   4.8900000e+02   1.0248680e+01   0.0000000e+00
   1.3120288e+01   4.8900000e+02   1.0461176e+01   0.0000000e+00
   1.3130288e+01   4.8900000e+02   1.0668751e+01   0.0000000e+00
   1.3140288e+01   4.8900000e+02   1.0871211e+01   0.0000000e+00
   1.3150288e+01   4.8900000e+02   1.1068366e+01   0.0000000e+00
   1.3160288e+01   4.8800000e+02   1.1260028e+01   0.0000000e+00
   1.3170289e+01   4.8800000e+02   1.1446012e+01   0.0000000e+00
   1.3180289e+01   4.8900000e+02   1.1626133e+01   0.0000000e+00
   1.3190289e+01   4.8800000e+02   1.1800214e+01   0.0000000e+00
   1.3200289e+01   4.8800000e+02   1.1968076e+01   0.0000000e+00
   1.3210290e+01   4.8800000e+02   1.2129548e+01   0.0000000e+00
   1.3220290e+01   4.8800000e+02   1.2284458e+01   0.0000000e+00
   1.3230290e+01   4.8900000e+02   1.2432640e+01   0.0000000e+00
   1.3240290e+01   4.8900000e+02   1.2573933e+01   0.0000000e+00
   1.3250290e+01   4.8800000e+02   1.2708176e+01   0.0000000e+00
   1.3260291e+01   4.8800000e+02   1.2835217e+01   0.0000000e+00
   1.3270291e+01   4.8800000e+02   1.2954904e+01   0.0000000e+00
   1.3280291e+01   4.8800000e+02   1.3067092e+01   0.0000000e+00
   1.3290291e+01   4.8800000e+02   1.3171639e+01   0.0000000e+00
   1.3300291e+01   4.8800000e+02   1.3268410e+01   0.0000000e+00
   1.3310292e+01   4.8800000e+02   1.3357273e+01   0.0000000e+00
   1.3320292e+01   4.8800000e+02   1.3438101e+01   0.0000000e+00
   1.3330292e+01   4.8800000e+02   1.3510773e+01   0.0000000e+00
   1.3340292e+01   4.8800000e+02   1.3575173e+01   0.0000000e+00
   1.3350293e+01   4.8800000e+02   1.3631190e+01   0.0000000e+00
   1.3360293e+01   4.8800000e+02   1.3678721e+01   0.0000000e+00
   1.3370293e+01   4.8800000e+02   1.3717665e+01   0.0000000e+00
   1.3380293e+01   4.8800000e+02   1.3747929e+01   0.0000000e+00
   1.3390293e+01   4.8800000e+02   1.3769426e+01   0.0000000e+00
   1.3400294e+01   4.8700000e+02   1.3782075e+01   0.0000000e+00
   1.3410294e+01   4.8700000e+02   1.3785801e+01   1.0000000e+00
   1.3420294e+01   4.8800000e+02   1.3780535e+01   0.0000000e+00
   1.3430294e+01   4.8800000e+02   1.3766214e+01   0.0000000e+00
   1.3440295e+01   4.8700000e+02   1.3742784e+01   0.0000000e+00
   1.3450295e+01   4.8700000e+02   1.3710195e+01   0.0000000e+00
   1.3460295e+01   4.8700000e+02   1.3668405e+01   0.0000000e+00
   1.3470295e+01   4.8700000e+02   1.3617378e+01   0.0000000e+00
   1.3480295e+01   4.8700000e+02   1.3557086e+01   0.0000000e+00
   1.3490296e+01   4.8700000e+02   1.3487506e+01   0.0000000e+00
   1.3500296e+01   4.8800000e+02   1.3408624e+01   0.0000000e+00
   1.3510296e+01   4.8800000e+02   1.3320432e+01   0.0000000e+00
   1.3520296e+01   4.8700000e+02   1.3222931e+01   0.0000000e+00
   1.3530297e+01   4.8700000e+02   1.3116125e+01   0.0000000e+00
   1.3540297e+01   4.8700000e+02   1.3000031e+01   0.0000000e+00
   1.3550297e+01   4.8700000e+02   1.2874667e+01   0.0000000e+00
   1.3560297e+01   4.8700000e+02   1.2740064e+01   0.0000000e+00
   1.3570297e+01   4.8700000e+02   1.2596256e+01   0.0000000e+00
   1.3580298e+01   4.8700000e+02   1.2443288e+01   0.0000000e+00
   1.3590298e+01   4.8700000e+02   1.2281208e+01   0.0000000e+00
   1.3600298e+01   4.8700000e+02   1.2110077e+01   0.0000000e+00
   1.3610298e+01   4.8700000e+02   1.1929958e+01   0.0000000e+00
   1.3620298e+01   4.8700000e+02   1.1740924e+01   0.0000000e+00
   1.3630299e+01   4.8700000e+02   1.1543055e+01   0.0000000e+00
   1.3640299e+01   4.8700000e+02   1.1336440e+01   0.0000000e+00
   1.3650299e+01   4.8700000e+02   1.1121171e+01   0.0000000e+00
   1.3660299e+01   4.8700000e+02   1.0897352e+01   0.0000000e+00
   1.3670300e+01   4.8800000e+02   1.0665091e+01   0.0000000e+00
   1.3680300e+01   4.8700000e+02   1.0424505e+01   0.0000000e+00
   1.3690300e+01   4.8700000e+02   1.0175717e+01   0.0000000e+00
   1.3700300e+01   4.8700000e+02   9.9188586e+00   0.0000000e+00
   1.3710300e+01   4.8700000e+02   9.6540666e+00   0.0000000e+00
   1.3720301e+01   4.8700000e+02   9.3814859e+00   0.0000000e+00
   1.3730301e+01   4.8800000e+02   9.1012679e+00   0.0000000e+00
   1.3740301e+01   4.8700000e+02   8.8135709e+00   0.0000000e+00
   1.3750301e+01   4.8800000e+02   8.5185600e+00   0.0000000e+00
   1.3760302e+01   4.8700000e+02   8.2164068e+00   0.0000000e+00
   1.3770302e+01   4.8800000e+02   7.9072894e+00   0.0000000e+00
   1.3780302e+01   4.8800000e+02   7.5913922e+00   0.0000000e+00
   1.3790302e+01   4.8800000e+02   7.2689060e+00   0.0000000e+00
   1.3800302e+01   4.8800000e+02   6.9400278e+00   0.0000000e+00
   1.3810303e+01   4.8800000e+02   6.6049605e+00   0.0000000e+00
   1.3820303e+01   4.8800000e+02   6.2639130e+00   0.0000000e+00
   1.3830303e+01   4.8800000e+02   5.9170998e+00   0.0000000e+00
   1.3840303e+01   4.8800000e+02   5.5647412e+00   0.0000000e+00
   1.3850304e+01   4.8800000e+02   5.2070627e+00   0.0000000e+00
   1.3860304e+01   4.8800000e+02   4.8442953e+00   0.0000000e+00
   1.3870304e+01   4.8800000e+02   4.4766751e+00   0.0000000e+00
   1.3880304e+01   4.8800000e+02   4.1044429e+00   0.0000000e+00
   1.3890304e+01   4.8800000e+02   3.7278447e+00   0.0000000e+00
   1.3900305e+01   4.8800000e+02   3.3471308e+00   0.0000000e+00
   1.3910305e+01   4.8800000e+02   2.9625560e+00   0.0000000e+00
   1.3920305e+01   4.8900000e+02   2.5743793e+00   0.0000000e+00
   1.3930305e+01   4.8900000e+02   2.1828636e+00   0.0000000e+00
   1.3940306e+01   4.8900000e+02   1.7882760e+00   0.0000000e+00
   1.3950306e+01   4.8900000e+02   1.3908868e+00   0.0000000e+00
   1.3960306e+01   4.8900000e+02   9.9096985e-01   0.0000000e+00
   1.3970306e+01   4.8900000e+02   5.8880235e-01   0.0000000e+00
   1.3980306e+01   4.8800000e+02   1.8466430e-01   0.0000000e+00
   1.3990307e+01   4.8900000e+02  -2.2116148e-01   0.0000000e+00
   1.4000307e+01   4.8900000e+02  -6.2838965e-01   0.0000000e+00
   1.4010307e+01   4.8900000e+02  -1.0367326e+00   0.0000000e+00
   1.4020307e+01   4.8900000e+02  -1.4459005e+00   0.0000000e+00
   1.4030307e+01   4.8900000e+02  -1.8556020e+00   0.0000000e+00
   1.4040308e+01   4.8800000e+02  -2.2655437e+00   0.0000000e+00
   1.4050308e+01   4.8800000e+02  -2.6754313e+00   0.0000000e+00
   1.4060308e+01   4.8800000e+02  -3.0849692e+00   0.0000000e+00
   1.4070308e+01   4.8900000e+02  -3.4938608e+00   0.0000000e+00
   1.4080309e+01   4.8900000e+02  -3.9018090e+00   0.0000000e+00
   1.4090309e+01   4.8900000e+02  -4.3085164e+00   0.0000000e+00
   1.4100309e+01   4.8800000e+02  -4.7136853e+00   0.0000000e+00
   1.4110309e+01   4.8900000e+02  -5.1170184e+00   0.0000000e+00
   1.4120309e+01   4.8900000e+02  -5.5182186e+00   0.0000000e+00
   1.4130310e+01   4.8800000e+02  -5.9169894e+00   0.0000000e+00
   1.4140310e+01   4.8800000e+02  -6.3130353e+00   0.0000000e+00
   1.4150310e+01   4.8900000e+02  -6.7060619e+00   0.0000000e+00
   1.4160310e+01   4.8800000e+02  -7.0957763e+00   0.0000000e+00
   1.4170311e+01   4.8800000e+02  -7.4818871e+00   0.0000000e+00
   1.4180311e+01   4.8900000e+02  -7.8641051e+00   0.0000000e+00
   1.4190311e+01   4.8900000e+02  -8.2421428e+00   0.0000000e+00
   1.4200311e+01   4.8900000e+02  -8.6157157e+00   0.0000000e+00
   1.4210311e+01   4.8800000e+02  -8.9845415e+00   0.0000000e+00
   1.4220312e+01   4.8800000e+02  -9.3483412e+00   0.0000000e+00
   1.4230312e+01   4.8800000e+02  -9.7068387e+00   0.0000000e+00
   1.4240312e+01   4.8800000e+02  -1.0059762e+01   0.0000000e+00
   1.4250312e+01   4.8900000e+02  -1.0406841e+01   0.0000000e+00
   1.4260313e+01   4.8900000e+02  -1.0747812e+01   0.0000000e+00
   1.4270313e+01   4.8900000e+02  -1.1082413e+01   0.0000000e+00
   1.4280313e+01   4.8900000e+02  -1.1410389e+01   0.0000000e+00
   1.4290313e+01   4.8900000e+02  -1.1731488e+01   0.0000000e+00
   1.4300313e+01   4.8800000e+02  -1.2045462e+01   0.0000000e+00
   1.4310314e+01   4.8800000e+02  -1.2352070e+01   0.0000000e+00
   1.4320314e+01   4.8900000e+02  -1.2651077e+01   0.0000000e+00
   1.4330314e+01   4.8900000e+02  -1.2942250e+01   0.0000000e+00
   1.4340314e+01   4.8900000e+02  -1.3225365e+01   0.0000000e+00
   1.4350314e+01   4.8900000e+02  -1.3500202e+01   0.0000000e+00
   1.4360315e+01   4.8900000e+02  -1.3766550e+01   0.0000000e+00
   1.4370315e+01   4.8900000e+02  -1.4024201e+01   0.0000000e+00
   1.4380315e+01   4.8800000e+02  -1.4272955e+01   0.0000000e+00
   1.4390315e+01   4.8800000e+02  -1.4512620e+01   0.0000000e+00
   1.4400316e+01   4.8800000e+02  -1.4743009e+01   0.0000000e+00
   1.4410316e+01   4.8800000e+02  -1.4963943e+01   0.0000000e+00
   1.4420316e+01   4.8800000e+02  -1.5175251e+01   0.0000000e+00
   1.4430316e+01   4.8800000e+02  -1.5376769e+01   0.0000000e+00
   1.4440316e+01   4.8800000e+02  -1.5568341e+01   0.0000000e+00
   1.4450317e+01   4.8900000e+02  -1.5749817e+01   0.0000000e+00
   1.4460317e+01   4.8800000e+02  -1.5921057e+01   0.0000000e+00
   1.4470317e+01   4.8900000e+02  -1.6081930e+01   0.0000000e+00
   1.4480317e+01   4.8900000e+02  -1.6232310e+01   0.0000000e+00
   1.4490318e+01   4.8800000e+02  -1.6372082e+01   0.0000000e+00
   1.4500318e+01   4.8800000e+02  -1.6501139e+01   0.0000000e+00
   1.4510318e+01   4.8800000e+02  -1.6619382e+01   0.0000000e+00
   1.4520318e+01   4.8800000e+02  -1.6726722e+01   0.0000000e+00
   1.4530318e+01   4.8900000e+02  -1.6823077e+01   0.0000000e+00
   1.4540319e+01   4.8800000e+02  -1.6908376e+01   0.0000000e+00
   1.4550319e+01   4.8800000e+02  -1.6982555e+01   0.0000000e+00
   1.4560319e+01   4.8800000e+02  -1.7045561e+01   0.0000000e+00
   1.4570319e+01   4.8900000e+02  -1.7097349e+01   0.0000000e+00
   1.4580320e+01   4.8900000e+02  -1.7137884e+01   0.0000000e+00
   1.4590320e+01   4.8800000e+02  -1.7167140e+01   0.0000000e+00
   1.4600320e+01   4.8800000e+02  -1.7185099e+01   0.0000000e+00
   1.4610320e+01   4.8900000e+02  -1.7191755e+01   0.0000000e+00
   1.4620320e+01   4.8800000e+02  -1.7187109e+01   0.0000000e+00
   1.4630321e+01   4.8900000e+02  -1.7171174e+01   0.0000000e+00
   1.4640321e+01   4.8900000e+02  -1.7143969e+01   0.0000000e+00
   1.4650321e+01   4.8900000e+02  -1.7105525e+01   0.0000000e+00
   1.4660321e+01   4.8900000e+02  -1.7055882e+01   0.0000000e+00
   1.4670322e+01   4.8900000e+02  -1.6995089e+01   0.0000000e+00
   1.4680322e+01   4.8900000e+02  -1.6923204e+01   0.0000000e+00
   1.4690322e+01   4.8900000e+02  -1.6840296e+01   0.0000000e+00
   1.4700322e+01   4.8900000e+02  -1.6746441e+01   0.0000000e+00
   1.4710322e+01   4.8900000e+02  -1.6641726e+01   0.0000000e+00
   1.4720323e+01   4.8900000e+02  -1.6526246e+01   0.0000000e+00
   1.4730323e+01   4.8900000e+02  -1.6400107e+01   0.0000000e+00
   1.4740323e+01   4.8900000e+02  -1.6263421e+01   0.0000000e+00
   1.4750323e+01   4.8900000e+02  -1.6116312e+01   0.0000000e+00
   1.4760323e+01   4.8900000e+02  -1.5958911e+01   0.0000000e+00
   1.4770324e+01   4.8900000e+02  -1.5791359e+01   0.0000000e+00
   1.4780324e+01   4.8900000e+02  -1.5613804e+01   0.0000000e+00
   1.4790324e+01   4.8900000e+02  -1.5426404e+01   0.0000000e+00
   1.4800324e+01   4.8900000e+02  -1.5229325e+01   0.0000000e+00
   1.4810325e+01   4.8900000e+02  -1.5022740e+01   0.0000000e+00
   1.4820325e+01   4.8900000e+02  -1.4806833e+01   0.0000000e+00
   1.4830325e+01   4.8900000e+02  -1.4581792e+01   0.0000000e+00
   1.4840325e+01   4.8900000e+02  -1.4347817e+01   0.0000000e+00
   1.4850325e+01   4.8900000e+02  -1.4105113e+01   0.0000000e+00
   1.4860326e+01   4.9000000e+02  -1.3853892e+01   0.0000000e+00
   1.4870326e+01   4.9000000e+02  -1.3594374e+01   0.0000000e+00
   1.4880326e+01   4.8900000e+02  -1.3326788e+01   0.0000000e+00
   1.4890326e+01   4.8900000e+02  -1.3051367e+01   0.0000000e+00
   1.4900327e+01   4.8900000e+02  -1.2768352e+01   0.0000000e+00
   1.4910327e+01   4.8800000e+02  -1.2477990e+01   0.0000000e+00
   1.4920327e+01   4.8900000e+02  -1.2180535e+01   0.0000000e+00
   1.4930327e+01   4.8900000e+02  -1.1876246e+01   0.0000000e+00
   1.4940327e+01   4.8900000e+02  -1.1565387e+01   0.0000000e+00
   1.4950328e+01   4.8800000e+02  -1.1248231e+01   0.0000000e+00
   1.4960328e+01   4.8900000e+02  -1.0925052e+01   0.0000000e+00
   1.4970328e+01   4.8900000e+02  -1.0596132e+01   0.0000000e+00
   1.4980328e+01   4.8900000e+02  -1.0261755e+01   0.0000000e+00
   1.4990329e+01   4.8900000e+02  -9.9222136e+00   0.0000000e+00
   1.5000329e+01   4.8900000e+02  -9.5778007e+00   0.0000000e+00
   1.5010329e+01   4.8900000e+02  -9.2288150e+00   0.0000000e+00
   1.5020329e+01   4.8900000e+02  -8.8755584e+00   0.0000000e+00
   1.5030329e+01   4.8900000e+02  -8.5183366e+00   0.0000000e+00
   1.5040330e+01   4.8900000e+02  -8.1574579e+00   0.0000000e+00
   1.5050330e+01   4.8900000e+02  -7.7932338e+00   0.0000000e+00
   1.5060330e+01   4.8900000e+02  -7.4259783e+00   0.0000000e+00
   1.5070330e+01   4.8900000e+02  -7.0560074e+00   0.0000000e+00
   1.5080330e+01   4.8900000e+02  -6.6836394e+00   0.0000000e+00
   1.5090331e+01   4.9000000e+02  -6.3091939e+00   0.0000000e+00
   1.5100331e+01   4.9000000e+02  -5.9329920e+00   0.0000000e+00
   1.5110331e+01   4.9100000e+02  -5.5553560e+00   0.0000000e+00
   1.5120331e+01   4.9100000e+02  -5.1766087e+00   0.0000000e+00
   1.5130332e+01   4.9100000e+02  -4.7970734e+00   0.0000000e+00
   1.5140332e+01   4.9100000e+02  -4.4170736e+00   0.0000000e+00
   1.5150332e+01   4.9100000e+02  -4.0369326e+00   0.0000000e+00
   1.5160332e+01   4.9200000e+02  -3.6569732e+00   0.0000000e+00
   1.5170332e+01   4.9200000e+02  -3.2775172e+00   0.0000000e+00
   1.5180333e+01   4.9200000e+02  -2.8988857e+00   0.0000000e+00
   1.5190333e+01   4.9200000e+02  -2.5213980e+00   0.0000000e+00
   1.5200333e+01   4.9300000e+02  -2.1453719e+00   0.0000000e+00
   1.5210333e+01   4.9300000e+02  -1.7711231e+00   0.0000000e+00
   1.5220334e+01   4.9300000e+02  -1.3989650e+00   0.0000000e+00
   1.5230334e+01   4.9300000e+02  -1.0292084e+00   0.0000000e+00
   1.5240334e+01   4.9400000e+02  -6.6216097e-01   0.0000000e+00
   1.5250334e+01   4.9400000e+02  -2.9812741e-01   0.0000000e+00
   1.5260334e+01   4.9400000e+02   6.2591269e-02   0.0000000e+00
   1.5270335e+01   4.9400000e+02   4.1969782e-01   0.0000000e+00
   1.5280335e+01   4.9400000e+02   7.7289911e-01   0.0000000e+00
   1.5290335e+01   4.9400000e+02   1.1219064e+00   0.0000000e+00
   1.5300335e+01   4.9400000e+02   1.4664357e+00   0.0000000e+00
   1.5310336e+01   4.9400000e+02   1.8062077e+00   0.0000000e+00
   1.5320336e+01   4.9400000e+02   2.1409488e+00   0.0000000e+00
   1.5330336e+01   4.9400000e+02   2.4703904e+00   0.0000000e+00
   1.5340336e+01   4.9400000e+02   2.7942699e+00   0.0000000e+00
   1.5350336e+01   4.9400000e+02   3.1123308e+00   0.0000000e+00
   1.5360337e+01   4.9400000e+02   3.4243226e+00   0.0000000e+00
   1.5370337e+01   4.9300000e+02   3.7300015e+00   0.0000000e+00
   1.5380337e+01   4.9400000e+02   4.0291304e+00   0.0000000e+00
   1.5390337e+01   4.9300000e+02   4.3214793e+00   0.0000000e+00
   1.5400338e+01   4.9300000e+02   4.6068252e+00   0.0000000e+00
   1.5410338e+01   4.9200000e+02   4.8849526e+00   0.0000000e+00
   1.5420338e+01   4.9200000e+02   5.1556539e+00   0.0000000e+00
   1.5430338e+01   4.9100000e+02   5.4187289e+00   0.0000000e+00
   1.5440338e+01   4.9100000e+02   5.6739858e+00   0.0000000e+00
   1.5450339e+01   4.9000000e+02   5.9212409e+00   0.0000000e+00
   1.5460339e+01   4.8900000e+02   6.1603190e+00   0.0000000e+00
   1.5470339e+01   4.9000000e+02   6.3910535e+00   0.0000000e+00
   1.5480339e+01   4.9000000e+02   6.6132863e+00   0.0000000e+00
   1.5490339e+01   4.8900000e+02   6.8268686e+00   0.0000000e+00
   1.5500340e+01   4.9000000e+02   7.0316605e+00   0.0000000e+00
   1.5510340e+01   4.9000000e+02   7.2275313e+00   0.0000000e+00
   1.5520340e+01   4.9000000e+02   7.4143595e+00   0.0000000e+00
   1.5530340e+01   4.8900000e+02   7.5920334e+00   0.0000000e+00
   1.5540341e+01   4.9000000e+02   7.7604505e+00   0.0000000e+00
   1.5550341e+01   4.9000000e+02   7.9195182e+00   0.0000000e+00
   1.5560341e+01   4.9000000e+02   8.0691536e+00   0.0000000e+00
   1.5570341e+01   4.9000000e+02   8.2092837e+00   0.0000000e+00
   1.5580341e+01   4.9100000e+02   8.3398453e+00   0.0000000e+00
   1.5590342e+01   4.9100000e+02   8.4607852e+00   0.0000000e+00
   1.5600342e+01   4.9100000e+02   8.5720604e+00   0.0000000e+00
   1.5610342e+01   4.9100000e+02   8.6736377e+00   0.0000000e+00
   1.5620342e+01   4.9100000e+02   8.7654943e+00   0.0000000e+00
   1.5630343e+01   4.9100000e+02   8.8476173e+00   0.0000000e+00
   1.5640343e+01   4.9100000e+02   8.9200040e+00   0.0000000e+00
   1.5650343e+01   4.9100000e+02   8.9826619e+00   0.0000000e+00
   1.5660343e+01   4.9100000e+02   9.0356087e+00   0.0000000e+00
   1.5670343e+01   4.9100000e+02   9.0788719e+00   0.0000000e+00
   1.5680344e+01   4.9200000e+02   9.1124895e+00   0.0000000e+00
   1.5690344e+01   4.9200000e+02   9.1365092e+00   0.0000000e+00
   1.5700344e+01   4.9200000e+02   9.1509888e+00   0.0000000e+00
   1.5710344e+01   4.9300000e+02   9.1559962e+00   0.0000000e+00
   1.5720345e+01   4.9400000e+02   9.1516088e+00   0.0000000e+00
   1.5730345e+01   4.9500000e+02   9.1379142e+00   0.0000000e+00
   1.5740345e+01   4.9500000e+02   9.1150093e+00   0.0000000e+00
   1.5750345e+01   4.9500000e+02   9.0830008e+00   0.0000000e+00
   1.5760345e+01   4.9500000e+02   9.0420049e+00   0.0000000e+00
   1.5770346e+01   4.9600000e+02   8.9921470e+00   0.0000000e+00
   1.5780346e+01   4.9600000e+02   8.9335617e+00   0.0000000e+00
   1.5790346e+01   4.9700000e+02   8.8663929e+00   0.0000000e+00
   1.5800346e+01   4.9800000e+02   8.7907932e+00   0.0000000e+00
   1.5810346e+01   4.9800000e+02   8.7069241e+00   0.0000000e+00
   1.5820347e+01   4.9800000e+02   8.6149557e+00   0.0000000e+00
   1.5830347e+01   4.9800000e+02   8.5150663e+00   0.0000000e+00
   1.5840347e+01   4.9900000e+02   8.4074427e+00   0.0000000e+00
   1.5850347e+01   4.9900000e+02   8.2922796e+00   0.0000000e+00
   1.5860348e+01   4.9900000e+02   8.1697795e+00   0.0000000e+00
   1.5870348e+01   4.9900000e+02   8.0401526e+00   0.0000000e+00
   1.5880348e+01   4.9900000e+02   7.9036165e+00   0.0000000e+00
   1.5890348e+01   5.0000000e+02   7.7603959e+00   0.0000000e+00
   1.5900348e+01   4.9900000e+02   7.6107223e+00   0.0000000e+00
   1.5910349e+01   4.9900000e+02   7.4548342e+00   0.0000000e+00
   1.5920349e+01   4.9900000e+02   7.2929763e+00   0.0000000e+00
   1.5930349e+01   4.9900000e+02   7.1253996e+00   0.0000000e+00
   1.5940349e+01   4.9800000e+02   6.9523607e+00   0.0000000e+00
   1.5950350e+01   4.9900000e+02   6.7741223e+00   0.0000000e+00
   1.5960350e+01   4.9900000e+02   6.5909521e+00   0.0000000e+00
   1.5970350e+01   4.9800000e+02   6.4031230e+00   0.0000000e+00
   1.5980350e+01   4.9800000e+02   6.2109127e+00   0.0000000e+00
   1.5990350e+01   4.9800000e+02   6.0146033e+00   0.0000000e+00
   1.6000351e+01   4.9800000e+02   5.8144813e+00   0.0000000e+00
   1.6010351e+01   4.9700000e+02   5.6108367e+00   0.0000000e+00
   1.6020351e+01   4.9700000e+02   5.4039634e+00   0.0000000e+00
   1.6030351e+01   4.9700000e+02   5.1941585e+00   0.0000000e+00
   1.6040352e+01   4.9700000e+02   4.9817219e+00   0.0000000e+00
   1.6050352e+01   4.9700000e+02   4.7669563e+00   0.0000000e+00
   1.6060352e+01   4.9600000e+02   4.5501666e+00   0.0000000e+00
   1.6070352e+01   4.9600000e+02   4.3316597e+00   0.0000000e+00
   1.6080352e+01   4.9600000e+02   4.1117440e+00   0.0000000e+00
   1.6090353e+01   4.9600000e+02   3.8907294e+00   0.0000000e+00
   1.6100353e+01   4.9500000e+02   3.6689268e+00   0.0000000e+00
   1.6110353e+01   4.9500000e+02   3.4466476e+00   0.0000000e+00
   1.6120353e+01   4.9400000e+02   3.2242036e+00   0.0000000e+00
   1.6130354e+01   4.9500000e+02   3.0019064e+00   0.0000000e+00
   1.6140354e+01   4.9400000e+02   2.7800676e+00   0.0000000e+00
   1.6150354e+01   4.9400000e+02   2.5589977e+00   0.0000000e+00
   1.6160354e+01   4.9400000e+02   2.3390064e+00   0.0000000e+00
   1.6170354e+01   4.9300000e+02   2.1204020e+00   0.0000000e+00
   1.6180355e+01   4.9300000e+02   1.9034910e+00   0.0000000e+00
   1.6190355e+01   4.9300000e+02   1.6885781e+00   0.0000000e+00
   1.6200355e+01   4.9200000e+02   1.4759652e+00   0.0000000e+00
   1.6210355e+01   4.9200000e+02   1.2659520e+00   0.0000000e+00
   1.6220355e+01   4.9200000e+02   1.0588348e+00   0.0000000e+00
   1.6230356e+01   4.9200000e+02   8.5490677e-01   0.0000000e+00
   1.6240356e+01   4.9200000e+02   6.5445731e-01   0.0000000e+00
   1.6250356e+01   4.9200000e+02   4.5777186e-01   0.0000000e+00
   1.6260356e+01   4.9200000e+02   2.6513159e-01   0.0000000e+00
   1.6270357e+01   4.9200000e+02   7.6813024e-02   0.0000000e+00
   1.6280357e+01   4.9200000e+02  -1.0691220e-01   0.0000000e+00
   1.6290357e+01   4.9100000e+02  -2.8577765e-01   0.0000000e+00
   1.6300357e+01   4.9100000e+02  -4.5952241e-01   0.0000000e+00
   1.6310357e+01   4.9100000e+02  -6.2789136e-01   0.0000000e+00
   1.6320358e+01   4.9100000e+02  -7.9063543e-01   0.0000000e+00
   1.6330358e+01   4.9100000e+02  -9.4751193e-01   0.0000000e+00
   1.6340358e+01   4.9100000e+02  -1.0982848e+00   0.0000000e+00
   1.6350358e+01   4.9100000e+02  -1.2427248e+00   0.0000000e+00
   1.6360359e+01   4.9100000e+02  -1.3806099e+00   0.0000000e+00
   1.6370359e+01   4.9000000e+02  -1.5117254e+00   0.0000000e+00
   1.6380359e+01   4.9000000e+02  -1.6358643e+00   0.0000000e+00
   1.6390359e+01   4.9100000e+02  -1.7528275e+00   0.0000000e+00
   1.6400359e+01   4.9000000e+02  -1.8624238e+00   0.0000000e+00
   1.6410360e+01   4.9000000e+02  -1.9644706e+00   0.0000000e+00
   1.6420360e+01   4.9000000e+02  -2.0587936e+00   0.0000000e+00
   1.6430360e+01   4.9000000e+02  -2.1452272e+00   0.0000000e+00
   1.6440360e+01   4.9000000e+02  -2.2236149e+00   0.0000000e+00
   1.6450361e+01   4.9000000e+02  -2.2938091e+00   0.0000000e+00
   1.6460361e+01   4.8900000e+02  -2.3556717e+00   0.0000000e+00
   1.6470361e+01   4.9000000e+02  -2.4090737e+00   0.0000000e+00
   1.6480361e+01   4.8900000e+02  -2.4538960e+00   0.0000000e+00
   1.6490361e+01   4.8900000e+02  -2.4900291e+00   0.0000000e+00
   1.6500362e+01   4.8900000e+02  -2.5173732e+00   0.0000000e+00
   1.6510362e+01   4.8800000e+02  -2.5358388e+00   0.0000000e+00
   1.6520362e+01   4.8800000e+02  -2.5453462e+00   0.0000000e+00
   1.6530362e+01   4.8700000e+02  -2.5458260e+00   0.0000000e+00
   1.6540362e+01   4.8600000e+02  -2.5372192e+00   0.0000000e+00
   1.6550363e+01   4.8500000e+02  -2.5194770e+00   0.0000000e+00
   1.6560363e+01   4.8400000e+02  -2.4925610e+00   0.0000000e+00
   1.6570363e+01   4.8300000e+02  -2.4564436e+00   0.0000000e+00
   1.6580363e+01   4.8100000e+02  -2.4111074e+00   0.0000000e+00
   1.6590364e+01   4.8100000e+02  -2.3565458e+00   0.0000000e+00
   1.6600364e+01   4.8000000e+02  -2.2927625e+00   0.0000000e+00
   1.6610364e+01   4.7900000e+02  -2.2197722e+00   0.0000000e+00
   1.6620364e+01   4.7900000e+02  -2.1376000e+00   0.0000000e+00
   1.6630364e+01   4.7900000e+02  -2.0462815e+00   0.0000000e+00
   1.6640365e+01   4.7900000e+02  -1.9458632e+00   0.0000000e+00
   1.6650365e+01   4.7900000e+02  -1.8364019e+00   0.0000000e+00
   1.6660365e+01   4.8000000e+02  -1.7179649e+00   0.0000000e+00
   1.6670365e+01   4.8000000e+02  -1.5906303e+00   0.0000000e+00
   1.6680366e+01   4.8100000e+02  -1.4544860e+00   0.0000000e+00
   1.6690366e+01   4.8300000e+02  -1.3096309e+00   0.0000000e+00
   1.6700366e+01   4.8400000e+02  -1.1561735e+00   0.0000000e+00
   1.6710366e+01   4.8500000e+02  -9.9423286e-01   0.0000000e+00
   1.6720366e+01   4.8700000e+02  -8.2393791e-01   0.0000000e+00
   1.6730367e+01   4.8800000e+02  -6.4542747e-01   0.0000000e+00
   1.6740367e+01   4.9100000e+02  -4.5885018e-01   0.0000000e+00
   1.6750367e+01   4.9200000e+02  -2.6436426e-01   0.0000000e+00
   1.6760367e+01   4.9500000e+02  -6.2137460e-02   0.0000000e+00
   1.6770368e+01   4.9700000e+02   1.4765318e-01   0.0000000e+00
   1.6780368e+01   4.9900000e+02   3.6482146e-01   0.0000000e+00
   1.6790368e+01   5.0100000e+02   5.8917221e-01   0.0000000e+00
   1.6800368e+01   5.0300000e+02   8.2050150e-01   0.0000000e+00
   1.6810368e+01   5.0500000e+02   1.0585968e+00   0.0000000e+00
   1.6820369e+01   5.0800000e+02   1.3032372e+00   0.0000000e+00
   1.6830369e+01   5.0900000e+02   1.5541938e+00   0.0000000e+00
   1.6840369e+01   5.1200000e+02   1.8112294e+00   0.0000000e+00
   1.6850369e+01   5.1400000e+02   2.0740996e+00   0.0000000e+00
   1.6860370e+01   5.1500000e+02   2.3425521e+00   0.0000000e+00
   1.6870370e+01   5.1800000e+02   2.6163278e+00   0.0000000e+00
   1.6880370e+01   5.1900000e+02   2.8951605e+00   0.0000000e+00
   1.6890370e+01   5.1900000e+02   3.1787772e+00   0.0000000e+00
   1.6900370e+01   5.2100000e+02   3.4668987e+00   0.0000000e+00
   1.6910371e+01   5.2200000e+02   3.7592398e+00   0.0000000e+00
   1.6920371e+01   5.2300000e+02   4.0555091e+00   0.0000000e+00
   1.6930371e+01   5.2300000e+02   4.3554100e+00   0.0000000e+00
   1.6940371e+01   5.2300000e+02   4.6586406e+00   0.0000000e+00
   1.6950371e+01   5.2200000e+02   4.9648941e+00   0.0000000e+00
   1.6960372e+01   5.2100000e+02   5.2738590e+00   0.0000000e+00
   1.6970372e+01   5.2100000e+02   5.5852197e+00   0.0000000e+00
   1.6980372e+01   5.2100000e+02   5.8986564e+00   0.0000000e+00
   1.6990372e+01   5.2100000e+02   6.2138458e+00   0.0000000e+00
   1.7000373e+01   5.2100000e+02   6.5304613e+00   0.0000000e+00
   1.7010373e+01   5.2000000e+02   6.8481733e+00   0.0000000e+00
   1.7020373e+01   5.2000000e+02   7.1666495e+00   0.0000000e+00
   1.7030373e+01   5.1900000e+02   7.4855555e+00   0.0000000e+00
   1.7040373e+01   5.1900000e+02   7.8045548e+00   0.0000000e+00
   1.7050374e+01   5.1900000e+02   8.1233092e+00   0.0000000e+00
   1.7060374e+01   5.1900000e+02   8.4414795e+00   0.0000000e+00
   1.7070374e+01   5.1900000e+02   8.7587253e+00   0.0000000e+00
   1.7080374e+01   5.1900000e+02   9.0747058e+00   0.0000000e+00
   1.7090375e+01   5.2000000e+02   9.3890799e+00   0.0000000e+00
   1.7100375e+01   5.2100000e+02   9.7015069e+00   0.0000000e+00
   1.7110375e+01   5.2100000e+02   1.0011646e+01   0.0000000e+00
   1.7120375e+01   5.2200000e+02   1.0319158e+01   0.0000000e+00
   1.7130375e+01   5.2300000e+02   1.0623705e+01   0.0000000e+00
   1.7140376e+01   5.2400000e+02   1.0924949e+01   0.0000000e+00
   1.7150376e+01   5.2400000e+02   1.1222556e+01   0.0000000e+00
   1.7160376e+01   5.2500000e+02   1.1516192e+01   0.0000000e+00
   1.7170376e+01   5.2600000e+02   1.1805528e+01   0.0000000e+00
   1.7180377e+01   5.2800000e+02   1.2090237e+01   0.0000000e+00
   1.7190377e+01   5.2800000e+02   1.2369994e+01   0.0000000e+00
   1.7200377e+01   5.2900000e+02   1.2644479e+01   0.0000000e+00
   1.7210377e+01   5.3100000e+02   1.2913375e+01   0.0000000e+00
   1.7220377e+01   5.3100000e+02   1.3176371e+01   0.0000000e+00
   1.7230378e+01   5.3200000e+02   1.3433158e+01   0.0000000e+00
   1.7240378e+01   5.3300000e+02   1.3683434e+01   0.0000000e+00
   1.7250378e+01   5.3300000e+02   1.3926901e+01   0.0000000e+00
   1.7260378e+01   5.3300000e+02   1.4163267e+01   0.0000000e+00
   1.7270378e+01   5.3400000e+02   1.4392246e+01   0.0000000e+00
   1.7280379e+01   5.3400000e+02   1.4613557e+01   0.0000000e+00
   1.7290379e+01   5.3400000e+02   1.4826927e+01   0.0000000e+00
   1.7300379e+01   5.3400000e+02   1.5032088e+01   0.0000000e+00
   1.7310379e+01   5.3400000e+02   1.5228780e+01   0.0000000e+00
   1.7320380e+01   5.3400000e+02   1.5416750e+01   0.0000000e+00
   1.7330380e+01   5.3500000e+02   1.5595752e+01   0.0000000e+00
   1.7340380e+01   5.3400000e+02   1.5765549e+01   0.0000000e+00
   1.7350380e+01   5.3400000e+02   1.5925911e+01   0.0000000e+00
   1.7360380e+01   5.3500000e+02   1.6076616e+01   0.0000000e+00
   1.7370381e+01   5.3500000e+02   1.6217451e+01   0.0000000e+00
   1.7380381e+01   5.3500000e+02   1.6348210e+01   0.0000000e+00
   1.7390381e+01   5.3300000e+02   1.6468700e+01   0.0000000e+00
   1.7400381e+01   5.3300000e+02   1.6578732e+01   0.0000000e+00
   1.7410382e+01   5.3200000e+02   1.6678129e+01   0.0000000e+00
   1.7420382e+01   5.3200000e+02   1.6766723e+01   0.0000000e+00
   1.7430382e+01   5.3100000e+02   1.6844356e+01   0.0000000e+00
   1.7440382e+01   5.3100000e+02   1.6910880e+01   0.0000000e+00
   1.7450382e+01   5.3100000e+02   1.6966154e+01   0.0000000e+00
   1.7460383e+01   5.3000000e+02   1.7010052e+01   0.0000000e+00
   1.7470383e+01   5.3000000e+02   1.7042453e+01   0.0000000e+00
   1.7480383e+01   5.3100000e+02   1.7063250e+01   0.0000000e+00
   1.7490383e+01   5.3100000e+02   1.7072345e+01   1.0000000e+00
   1.7500384e+01   5.3100000e+02   1.7069651e+01   0.0000000e+00
   1.7510384e+01   5.3100000e+02   1.7055091e+01   0.0000000e+00
   1.7520384e+01   5.3000000e+02   1.7028599e+01   0.0000000e+00
   1.7530384e+01   5.3000000e+02   1.6990119e+01   0.0000000e+00
   1.7540384e+01   5.2800000e+02   1.6939608e+01   0.0000000e+00
   1.7550385e+01   5.2700000e+02   1.6877030e+01   0.0000000e+00
   1.7560385e+01   5.2600000e+02   1.6802364e+01   0.0000000e+00
   1.7570385e+01   5.2400000e+02   1.6715598e+01   0.0000000e+00
   1.7580385e+01   5.2300000e+02   1.6616729e+01   0.0000000e+00
   1.7590386e+01   5.2300000e+02   1.6505769e+01   0.0000000e+00
   1.7600386e+01   5.2300000e+02   1.6382738e+01   0.0000000e+00
   1.7610386e+01   5.2300000e+02   1.6247666e+01   0.0000000e+00
   1.7620386e+01   5.2300000e+02   1.6100598e+01   0.0000000e+00
   1.7630386e+01   5.2300000e+02   1.5941584e+01   0.0000000e+00
   1.7640387e+01   5.2200000e+02   1.5770690e+01   0.0000000e+00
   1.7650387e+01   5.2200000e+02   1.5587989e+01   0.0000000e+00
   1.7660387e+01   5.2200000e+02   1.5393567e+01   0.0000000e+00
   1.7670387e+01   5.2100000e+02   1.5187519e+01   0.0000000e+00
   1.7680387e+01   5.2100000e+02   1.4969950e+01   0.0000000e+00
   1.7690388e+01   5.2100000e+02   1.4740977e+01   0.0000000e+00
   1.7700388e+01   5.2100000e+02   1.4500725e+01   0.0000000e+00
   1.7710388e+01   5.2200000e+02   1.4249330e+01   0.0000000e+00
   1.7720388e+01   5.2100000e+02   1.3986939e+01   0.0000000e+00
   1.7730389e+01   5.2100000e+02   1.3713706e+01   0.0000000e+00
   1.7740389e+01   5.2100000e+02   1.3429798e+01   0.0000000e+00
   1.7750389e+01   5.2100000e+02   1.3135388e+01   0.0000000e+00
   1.7760389e+01   5.2100000e+02   1.2830659e+01   0.0000000e+00
   1.7770389e+01   5.2000000e+02   1.2515805e+01   0.0000000e+00
   1.7780390e+01   5.2100000e+02   1.2191027e+01   0.0000000e+00
   1.7790390e+01   5.2100000e+02   1.1856534e+01   0.0000000e+00
   1.7800390e+01   5.2100000e+02   1.1512545e+01   0.0000000e+00
   1.7810390e+01   5.2000000e+02   1.1159285e+01   0.0000000e+00
   1.7820391e+01   5.2000000e+02   1.0796990e+01   0.0000000e+00
   1.7830391e+01   5.1900000e+02   1.0425900e+01   0.0000000e+00
   1.7840391e+01   5.1900000e+02   1.0046266e+01   0.0000000e+00
   1.7850391e+01   5.1900000e+02   9.6583425e+00   0.0000000e+00
   1.7860391e+01   5.1900000e+02   9.2623938e+00   0.0000000e+00
   1.7870392e+01   5.1900000e+02   8.8586893e+00   0.0000000e+00
   1.7880392e+01   5.1800000e+02   8.4475053e+00   0.0000000e+00
   1.7890392e+01   5.1800000e+02   8.0291237e+00   0.0000000e+00
   1.7900392e+01   5.1800000e+02   7.6038324e+00   0.0000000e+00
   1.7910393e+01   5.1700000e+02   7.1719249e+00   0.0000000e+00
   1.7920393e+01   5.1700000e+02   6.7336996e+00   0.0000000e+00
   1.7930393e+01   5.1700000e+02   6.2894598e+00   0.0000000e+00
   1.7940393e+01   5.1600000e+02   5.8395135e+00   0.0000000e+00
   1.7950393e+01   5.1600000e+02   5.3841729e+00   0.0000000e+00
   1.7960394e+01   5.1600000e+02   4.9237539e+00   0.0000000e+00
   1.7970394e+01   5.1500000e+02   4.4585763e+00   0.0000000e+00
   1.7980394e+01   5.1500000e+02   3.9889631e+00   0.0000000e+00
   1.7990394e+01   5.1500000e+02   3.5152403e+00   0.0000000e+00
   1.8000394e+01   5.1500000e+02   3.0377363e+00   0.0000000e+00
   1.8010395e+01   5.1500000e+02   2.5567822e+00   0.0000000e+00
   1.8020395e+01   5.1500000e+02   2.0727109e+00   0.0000000e+00
   1.8030395e+01   5.1400000e+02   1.5858569e+00   0.0000000e+00
   1.8040395e+01   5.1400000e+02   1.0965560e+00   0.0000000e+00
   1.8050396e+01   5.1400000e+02   6.0514538e-01   0.0000000e+00
   1.8060396e+01   5.1200000e+02   1.1196243e-01   0.0000000e+00
   1.8070396e+01   5.1200000e+02  -3.8265486e-01   0.0000000e+00
   1.8080396e+01   5.1100000e+02  -8.7836854e-01   0.0000000e+00
   1.8090396e+01   5.1000000e+02  -1.3748410e+00   0.0000000e+00
   1.8100397e+01   5.0900000e+02  -1.8717351e+00   0.0000000e+00
   1.8110397e+01   5.0800000e+02  -2.3687150e+00   0.0000000e+00
   1.8120397e+01   5.0800000e+02  -2.8654458e+00   0.0000000e+00
   1.8130397e+01   5.0800000e+02  -3.3615942e+00   0.0000000e+00
   1.8140398e+01   5.0700000e+02  -3.8568292e+00   0.0000000e+00
   1.8150398e+01   5.0800000e+02  -4.3508215e+00   0.0000000e+00
   1.8160398e+01   5.0700000e+02  -4.8432447e+00   0.0000000e+00
   1.8170398e+01   5.0800000e+02  -5.3337752e+00   0.0000000e+00
   1.8180398e+01   5.0700000e+02  -5.8220923e+00   0.0000000e+00
   1.8190399e+01   5.0800000e+02  -6.3078790e+00   0.0000000e+00
   1.8200399e+01   5.0800000e+02  -6.7908218e+00   0.0000000e+00
   1.8210399e+01   5.0800000e+02  -7.2706115e+00   0.0000000e+00
   1.8220399e+01   5.0900000e+02  -7.7469428e+00   0.0000000e+00
   1.8230400e+01   5.0900000e+02  -8.2195154e+00   0.0000000e+00
   1.8240400e+01   5.0900000e+02  -8.6880335e+00   0.0000000e+00
   1.8250400e+01   5.1000000e+02  -9.1522064e+00   0.0000000e+00
   1.8260400e+01   5.1000000e+02  -9.6117490e+00   0.0000000e+00
   1.8270400e+01   5.1000000e+02  -1.0066382e+01   0.0000000e+00
   1.8280401e+01   5.1000000e+02  -1.0515830e+01   0.0000000e+00
   1.8290401e+01   5.0900000e+02  -1.0959827e+01   0.0000000e+00
   1.8300401e+01   5.0900000e+02  -1.1398111e+01   0.0000000e+00
   1.8310401e+01   5.0900000e+02  -1.1830428e+01   0.0000000e+00
   1.8320401e+01   5.0800000e+02  -1.2256527e+01   0.0000000e+00
   1.8330402e+01   5.0800000e+02  -1.2676170e+01   0.0000000e+00
   1.8340402e+01   5.0800000e+02  -1.3089120e+01   0.0000000e+00
   1.8350402e+01   5.0700000e+02  -1.3495152e+01   0.0000000e+00
   1.8360402e+01   5.0700000e+02  -1.3894046e+01   0.0000000e+00
   1.8370403e+01   5.0700000e+02  -1.4285590e+01   0.0000000e+00
   1.8380403e+01   5.0800000e+02  -1.4669580e+01   0.0000000e+00
   1.8390403e+01   5.0800000e+02  -1.5045821e+01   0.0000000e+00
   1.8400403e+01   5.0900000e+02  -1.5414123e+01   0.0000000e+00
   1.8410403e+01   5.0900000e+02  -1.5774308e+01   0.0000000e+00
   1.8420404e+01   5.1000000e+02  -1.6126204e+01   0.0000000e+00
   1.8430404e+01   5.1100000e+02  -1.6469648e+01   0.0000000e+00
   1.8440404e+01   5.1100000e+02  -1.6804486e+01   0.0000000e+00
   1.8450404e+01   5.1200000e+02  -1.7130571e+01   0.0000000e+00
