   0.0000000e+00   5.3300000e+02   2.5645151e-30   0.0000000e+00
   1.0000271e-02   5.3400000e+02   3.4561471e-30   0.0000000e+00
   2.0000543e-02   5.3400000e+02   4.6481548e-30   0.0000000e+00
   3.0000814e-02   5.3400000e+02   6.2385190e-30   0.0000000e+00
   4.0001086e-02   5.3400000e+02   8.3561436e-30   0.0000000e+00
   5.0001357e-02   5.3400000e+02   1.1170291e-29   0.0000000e+00
   6.0001629e-02   5.3400000e+02   1.4902797e-29   0.0000000e+00
   7.0001900e-02   5.3500000e+02   1.9843860e-29   0.0000000e+00
   8.0002172e-02   5.3600000e+02   2.6372405e-29   0.0000000e+00
   9.0002443e-02   5.3600000e+02   3.4982311e-29   0.0000000e+00
   1.0000271e-01   5.3600000e+02   4.6316127e-29   0.0000000e+00
   1.1000299e-01   5.3600000e+02   6.1208335e-29   0.0000000e+00
   1.2000326e-01   5.3600000e+02   8.0740780e-29   0.0000000e+00
   1.3000353e-01   5.3600000e+02   1.0631355e-28   0.0000000e+00
   1.4000380e-01   5.3600000e+02   1.3973551e-28   0.0000000e+00
   1.5000407e-01   5.3600000e+02   1.8333963e-28   0.0000000e+00
   1.6000434e-01   5.3600000e+02   2.4012985e-28   0.0000000e+00
   1.7000461e-01   5.3700000e+02   3.1396760e-28   0.0000000e+00
   1.8000489e-01   5.3700000e+02   4.0980847e-28   0.0000000e+00
   1.9000516e-01   5.3700000e+02   5.3400188e-28   0.0000000e+00
   2.0000543e-01   5.3800000e+02   6.9467016e-28   0.0000000e+00
   2.1000570e-01   5.3800000e+02   9.0218705e-28   0.0000000e+00
   2.2000597e-01   5.3800000e+02   1.1697810e-27   0.0000000e+00
   2.3000624e-01   5.3800000e+02   1.5142948e-27   0.0000000e+00
   2.4000651e-01   5.3900000e+02   1.9571399e-27   0.0000000e+00
   2.5000679e-01   5.3900000e+02   2.5254944e-27   0.0000000e+00
   2.6000706e-01   5.3900000e+02   3.2538052e-27   0.0000000e+00
   2.7000733e-01   5.3900000e+02   4.1856660e-27   0.0000000e+00
   2.8000760e-01   5.4000000e+02   5.3761664e-27   0.0000000e+00
   2.9000787e-01   5.3900000e+02   6.8948216e-27   0.0000000e+00
   3.0000814e-01   5.4000000e+02   8.8292238e-27   0.0000000e+00
   3.1000841e-01   5.4000000e+02   1.1289587e-26   0.0000000e+00
   3.2000869e-01   5.4000000e+02   1.4414394e-26   0.0000000e+00
   3.3000896e-01   5.4000000e+02   1.8377403e-26   0.0000000e+00
   3.4000923e-01   5.4100000e+02   2.3396339e-26   0.0000000e+00
   3.5000950e-01   5.4100000e+02   2.9743638e-26   0.0000000e+00
   3.6000977e-01   5.4100000e+02   3.7759745e-26   0.0000000e+00
   3.7001004e-01   5.4200000e+02   4.7869515e-26   0.0000000e+00
   3.8001032e-01   5.4200000e+02   6.0602449e-26   0.0000000e+00
   3.9001059e-01   5.4200000e+02   7.6617601e-26   0.0000000e+00
   4.0001086e-01   5.4200000e+02   9.6734216e-26   0.0000000e+00
   4.1001113e-01   5.4200000e+02   1.2196936e-25   0.0000000e+00
   4.2001140e-01   5.4300000e+02   1.5358408e-25   0.0000000e+00
   4.3001167e-01   5.4300000e+02   1.9314000e-25   0.0000000e+00
   4.4001194e-01   5.4200000e+02   2.4256849e-25   0.0000000e+00
   4.5001222e-01   5.4300000e+02   3.0425536e-25   0.0000000e+00
   4.6001249e-01   5.4300000e+02   3.8114411e-25   0.0000000e+00
   4.7001276e-01   5.4300000e+02   4.7686197e-25   0.0000000e+00
   4.8001303e-01   5.4300000e+02   5.9587333e-25   0.0000000e+00
   4.9001330e-01   5.4300000e+02   7.4366648e-25   0.0000000e+00
   5.0001357e-01   5.4300000e+02   9.2698049e-25   0.0000000e+00
   5.1001384e-01   5.4400000e+02   1.1540807e-24   0.0000000e+00
   5.2001412e-01   5.4400000e+02   1.4350926e-24   0.0000000e+00
   5.3001439e-01   5.4400000e+02   1.7824066e-24   0.0000000e+00
   5.4001466e-01   5.4400000e+02   2.2111672e-24   0.0000000e+00
   5.5001493e-01   5.4400000e+02   2.7398647e-24   0.0000000e+00
   5.6001520e-01   5.4500000e+02   3.3910490e-24   0.0000000e+00
   5.7001547e-01   5.4400000e+02   4.1921912e-24   0.0000000e+00
   5.8001574e-01   5.4500000e+02   5.1767210e-24   0.0000000e+00
   5.9001602e-01   5.4500000e+02   6.3852749e-24   0.0000000e+00
   6.0001629e-01   5.4400000e+02   7.8671975e-24   0.0000000e+00
   6.1001656e-01   5.4400000e+02   9.6823443e-24   0.0000000e+00
   6.2001683e-01   5.4500000e+02   1.1903244e-23   0.0000000e+00
   6.3001710e-01   5.4500000e+02   1.4617690e-23   0.0000000e+00
   6.4001737e-01   5.4500000e+02   1.7931845e-23   0.0000000e+00
   6.5001764e-01   5.4500000e+02   2.1973953e-23   0.0000000e+00
   6.6001792e-01   5.4500000e+02   2.6898774e-23   0.0000000e+00
   6.7001819e-01   5.4500000e+02   3.2892879e-23   0.0000000e+00
   6.8001846e-01   5.4500000e+02   4.0180968e-23   0.0000000e+00
   6.9001873e-01   5.4500000e+02   4.9033393e-23   0.0000000e+00
   7.0001900e-01   5.4500000e+02   5.9775116e-23   0.0000000e+00
   7.1001927e-01   5.4500000e+02   7.2796360e-23   0.0000000e+00
   7.2001954e-01   5.4600000e+02   8.8565268e-23   0.0000000e+00
   7.3001982e-01   5.4500000e+02   1.0764292e-22   0.0000000e+00
   7.4002009e-01   5.4600000e+02   1.3070117e-22   0.0000000e+00
   7.5002036e-01   5.4600000e+02   1.5854373e-22   0.0000000e+00
   7.6002063e-01   5.4600000e+02   1.9213118e-22   0.0000000e+00
   7.7002090e-01   5.4600000e+02   2.3261051e-22   0.0000000e+00
   7.8002117e-01   5.4600000e+02   2.8135006e-22   0.0000000e+00
   7.9002144e-01   5.4600000e+02   3.3998079e-22   0.0000000e+00
   8.0002172e-01   5.4600000e+02   4.1044484e-22   0.0000000e+00
   8.1002199e-01   5.4600000e+02   4.9505296e-22   0.0000000e+00
   8.2002226e-01   5.4600000e+02   5.9655195e-22   0.0000000e+00
   8.3002253e-01   5.4600000e+02   7.1820415e-22   0.0000000e+00
   8.4002280e-01   5.4600000e+02   8.6388081e-22   0.0000000e+00
   8.5002307e-01   5.4600000e+02   1.0381717e-21   0.0000000e+00
   8.6002334e-01   5.4700000e+02   1.2465141e-21   0.0000000e+00
   8.7002362e-01   5.4700000e+02   1.4953434e-21   0.0000000e+00
   8.8002389e-01   5.4700000e+02   1.7922703e-21   0.0000000e+00
   8.9002416e-01   5.4700000e+02   2.1462877e-21   0.0000000e+00
   9.0002443e-01   5.4700000e+02   2.5680130e-21   0.0000000e+00
   9.1002470e-01   5.4700000e+02   3.0699714e-21   0.0000000e+00
   9.2002497e-01   5.4800000e+02   3.6669266e-21   0.0000000e+00
   9.3002524e-01   5.4700000e+02   4.3762664e-21   0.0000000e+00
   9.4002552e-01   5.4800000e+02   5.2184534e-21   0.0000000e+00
   9.5002579e-01   5.4800000e+02   6.2175490e-21   0.0000000e+00
   9.6002606e-01   5.4800000e+02   7.4018239e-21   0.0000000e+00
   9.7002633e-01   5.4800000e+02   8.8044692e-21   0.0000000e+00
   9.8002660e-01   5.4900000e+02   1.0464422e-20   0.0000000e+00
   9.9002687e-01   5.5000000e+02   1.2427323e-20   0.0000000e+00
   1.0000271e+00   5.5000000e+02   1.4746635e-20   0.0000000e+00
   1.0100274e+00   5.5000000e+02   1.7484928e-20   0.0000000e+00
   1.0200277e+00   5.5100000e+02   2.0715385e-20   0.0000000e+00
   1.0300280e+00   5.5100000e+02   2.4523526e-20   0.0000000e+00
   1.0400282e+00   5.5100000e+02   2.9009225e-20   0.0000000e+00
   1.0500285e+00   5.5100000e+02   3.4289028e-20   0.0000000e+00
   1.0600288e+00   5.5100000e+02   4.0498833e-20   0.0000000e+00
   1.0700290e+00   5.5200000e+02   4.7796995e-20   0.0000000e+00
   1.0800293e+00   5.5100000e+02   5.6367900e-20   0.0000000e+00
   1.0900296e+00   5.5200000e+02   6.6426089e-20   0.0000000e+00
   1.1000299e+00   5.5100000e+02   7.8221015e-20   0.0000000e+00
   1.1100301e+00   5.5100000e+02   9.2042517e-20   0.0000000e+00
   1.1200304e+00   5.5100000e+02   1.0822712e-19   0.0000000e+00
   1.1300307e+00   5.5100000e+02   1.2716530e-19   0.0000000e+00
   1.1400309e+00   5.5200000e+02   1.4930979e-19   0.0000000e+00
   1.1500312e+00   5.5200000e+02   1.7518517e-19   0.0000000e+00
   1.1600315e+00   5.5200000e+02   2.0539883e-19   0.0000000e+00
   1.1700318e+00   5.5200000e+02   2.4065361e-19   0.0000000e+00
   1.1800320e+00   5.5200000e+02   2.8176220e-19   0.0000000e+00
   1.1900323e+00   5.5300000e+02   3.2966373e-19   0.0000000e+00
   1.2000326e+00   5.5300000e+02   3.8544269e-19   0.0000000e+00
   1.2100328e+00   5.5200000e+02   4.5035059e-19   0.0000000e+00
   1.2200331e+00   5.5300000e+02   5.2583081e-19   0.0000000e+00
   1.2300334e+00   5.5200000e+02   6.1354684e-19   0.0000000e+00
   1.2400337e+00   5.5200000e+02   7.1541470e-19   0.0000000e+00
   1.2500339e+00   5.5300000e+02   8.3363977e-19   0.0000000e+00
   1.2600342e+00   5.5300000e+02   9.7075895e-19   0.0000000e+00
   1.2700345e+00   5.5300000e+02   1.1296886e-18   0.0000000e+00
   1.2800347e+00   5.5400000e+02   1.3137794e-18   0.0000000e+00
   1.2900350e+00   5.5400000e+02   1.5268780e-18   0.0000000e+00
   1.3000353e+00   5.5400000e+02   1.7733987e-18   0.0000000e+00
   1.3100356e+00   5.5400000e+02   2.0584030e-18   0.0000000e+00
   1.3200358e+00   5.5500000e+02   2.3876921e-18   0.0000000e+00
   1.3300361e+00   5.5500000e+02   2.7679098e-18   0.0000000e+00
   1.3400364e+00   5.5500000e+02   3.2066611e-18   0.0000000e+00
   1.3500366e+00   5.5600000e+02   3.7126457e-18   0.0000000e+00
   1.3600369e+00   5.5600000e+02   4.2958099e-18   0.0000000e+00
   1.3700372e+00   5.5600000e+02   4.9675181e-18   0.0000000e+00
   1.3800375e+00   5.5600000e+02   5.7407478e-18   0.0000000e+00
   1.3900377e+00   5.5700000e+02   6.6303097e-18   0.0000000e+00
   1.4000380e+00   5.5700000e+02   7.6530965e-18   0.0000000e+00
   1.4100383e+00   5.5700000e+02   8.8283653e-18   0.0000000e+00
   1.4200385e+00   5.5700000e+02   1.0178055e-17   0.0000000e+00
   1.4300388e+00   5.5700000e+02   1.1727147e-17   0.0000000e+00
   1.4400391e+00   5.5600000e+02   1.3504068e-17   0.0000000e+00
   1.4500394e+00   5.5700000e+02   1.5541151e-17   0.0000000e+00
   1.4600396e+00   5.5700000e+02   1.7875149e-17   0.0000000e+00
   1.4700399e+00   5.5700000e+02   2.0547816e-17   0.0000000e+00
   1.4800402e+00   5.5700000e+02   2.3606562e-17   0.0000000e+00
   1.4900404e+00   5.5600000e+02   2.7105190e-17   0.0000000e+00
   1.5000407e+00   5.5600000e+02   3.1208753e-17   0.0000000e+00
   1.5100410e+00   5.5600000e+02   3.5912965e-17   0.0000000e+00
   1.5200413e+00   5.5600000e+02   4.1302708e-17   0.0000000e+00
   1.5300415e+00   5.5600000e+02   4.7474428e-17   0.0000000e+00
   1.5400418e+00   5.5600000e+02   5.4537649e-17   0.0000000e+00
   1.5500421e+00   5.5600000e+02   6.2616682e-17   0.0000000e+00
   1.5600423e+00   5.5500000e+02   7.1852540e-17   0.0000000e+00
   1.5700426e+00   5.5500000e+02   8.2405104e-17   0.0000000e+00
   1.5800429e+00   5.5500000e+02   9.4455546e-17   0.0000000e+00
   1.5900432e+00   5.5500000e+02   1.0820906e-16   0.0000000e+00
   1.6000434e+00   5.5500000e+02   1.2389791e-16   0.0000000e+00
   1.6100437e+00   5.5500000e+02   1.4178491e-16   0.0000000e+00
   1.6200440e+00   5.5400000e+02   1.6216722e-16   0.0000000e+00
   1.6300442e+00   5.5400000e+02   1.8538071e-16   0.0000000e+00
   1.6400445e+00   5.5300000e+02   2.1180480e-16   0.0000000e+00
   1.6500448e+00   5.5300000e+02   2.4186788e-16   0.0000000e+00
   1.6600451e+00   5.5300000e+02   2.7605340e-16   0.0000000e+00
   1.6700453e+00   5.5300000e+02   3.1490665e-16   0.0000000e+00
   1.6800456e+00   5.5200000e+02   3.5904236e-16   0.0000000e+00
   1.6900459e+00   5.5100000e+02   4.0915326e-16   0.0000000e+00
   1.7000461e+00   5.5100000e+02   4.6601948e-16   0.0000000e+00
   1.7100464e+00   5.5100000e+02   5.3051925e-16   0.0000000e+00
   1.7200467e+00   5.5000000e+02   6.0364071e-16   0.0000000e+00
   1.7300470e+00   5.4900000e+02   6.8649511e-16   0.0000000e+00
   1.7400472e+00   5.4900000e+02   7.8033155e-16   0.0000000e+00
   1.7500475e+00   5.4800000e+02   8.8655344e-16   0.0000000e+00
   1.7600478e+00   5.4800000e+02   1.0067367e-15   0.0000000e+00
   1.7700480e+00   5.4800000e+02   1.1426504e-15   0.0000000e+00
   1.7800483e+00   5.4700000e+02   1.2962791e-15   0.0000000e+00
   1.7900486e+00   5.4700000e+02   1.4698482e-15   0.0000000e+00
   1.8000489e+00   5.4700000e+02   1.6658523e-15   0.0000000e+00
   1.8100491e+00   5.4600000e+02   1.8870861e-15   0.0000000e+00
   1.8200494e+00   5.4500000e+02   2.1366789e-15   0.0000000e+00
   1.8300497e+00   5.4500000e+02   2.4181337e-15   0.0000000e+00
   1.8400499e+00   5.4500000e+02   2.7353694e-15   0.0000000e+00
   1.8500502e+00   5.4500000e+02   3.0927686e-15   0.0000000e+00
   1.8600505e+00   5.4400000e+02   3.4952297e-15   0.0000000e+00
   1.8700508e+00   5.4300000e+02   3.9482260e-15   0.0000000e+00
   1.8800510e+00   5.4300000e+02   4.4578695e-15   0.0000000e+00
   1.8900513e+00   5.4300000e+02   5.0309829e-15   0.0000000e+00
   1.9000516e+00   5.4300000e+02   5.6751789e-15   0.0000000e+00
   1.9100518e+00   5.4200000e+02   6.3989478e-15   0.0000000e+00
   1.9200521e+00   5.4200000e+02   7.2117542e-15   0.0000000e+00
   1.9300524e+00   5.4100000e+02   8.1241448e-15   0.0000000e+00
   1.9400527e+00   5.4000000e+02   9.1478665e-15   0.0000000e+00
   1.9500529e+00   5.4000000e+02   1.0295998e-14   0.0000000e+00
   1.9600532e+00   5.4000000e+02   1.1583092e-14   0.0000000e+00
   1.9700535e+00   5.3900000e+02   1.3025340e-14   0.0000000e+00
   1.9800537e+00   5.3900000e+02   1.4640743e-14   0.0000000e+00
   1.9900540e+00   5.3800000e+02   1.6449307e-14   0.0000000e+00
   2.0000543e+00   5.3800000e+02   1.8473261e-14   0.0000000e+00
   2.0100546e+00   5.3700000e+02   2.0737287e-14   0.0000000e+00
   2.0200548e+00   5.3700000e+02   2.3268784e-14   0.0000000e+00
   2.0300551e+00   5.3700000e+02   2.6098154e-14   0.0000000e+00
   2.0400554e+00   5.3700000e+02   2.9259115e-14   0.0000000e+00
   2.0500556e+00   5.3600000e+02   3.2789047e-14   0.0000000e+00
   2.0600559e+00   5.3600000e+02   3.6729378e-14   0.0000000e+00
   2.0700562e+00   5.3600000e+02   4.1125996e-14   0.0000000e+00
   2.0800565e+00   5.3600000e+02   4.6029715e-14   0.0000000e+00
   2.0900567e+00   5.3500000e+02   5.1496777e-14   0.0000000e+00
   2.1000570e+00   5.3500000e+02   5.7589408e-14   0.0000000e+00
   2.1100573e+00   5.3500000e+02   6.4376427e-14   0.0000000e+00
   2.1200575e+00   5.3400000e+02   7.1933916e-14   0.0000000e+00
   2.1300578e+00   5.3400000e+02   8.0345951e-14   0.0000000e+00
   2.1400581e+00   5.3400000e+02   8.9705403e-14   0.0000000e+00
   2.1500584e+00   5.3300000e+02   1.0011483e-13   0.0000000e+00
   2.1600586e+00   5.3300000e+02   1.1168741e-13   0.0000000e+00
   2.1700589e+00   5.3200000e+02   1.2454805e-13   0.0000000e+00
   2.1800592e+00   5.3200000e+02   1.3883449e-13   0.0000000e+00
   2.1900594e+00   5.3100000e+02   1.5469859e-13   0.0000000e+00
   2.2000597e+00   5.3100000e+02   1.7230771e-13   0.0000000e+00
   2.2100600e+00   5.3100000e+02   1.9184623e-13   0.0000000e+00
   2.2200603e+00   5.3000000e+02   2.1351718e-13   0.0000000e+00
   2.2300605e+00   5.2900000e+02   2.3754407e-13   0.0000000e+00
   2.2400608e+00   5.2900000e+02   2.6417285e-13   0.0000000e+00
   2.2500611e+00   5.2900000e+02   2.9367403e-13   0.0000000e+00
   2.2600613e+00   5.2800000e+02   3.2634510e-13   0.0000000e+00
   2.2700616e+00   5.2800000e+02   3.6251302e-13   0.0000000e+00
   2.2800619e+00   5.2700000e+02   4.0253703e-13   0.0000000e+00
   2.2900622e+00   5.2700000e+02   4.4681173e-13   0.0000000e+00
   2.3000624e+00   5.2700000e+02   4.9577033e-13   0.0000000e+00
   2.3100627e+00   5.2700000e+02   5.4988833e-13   0.0000000e+00
   2.3200630e+00   5.2600000e+02   6.0968740e-13   0.0000000e+00
   2.3300632e+00   5.2600000e+02   6.7573967e-13   0.0000000e+00
   2.3400635e+00   5.2600000e+02   7.4867240e-13   0.0000000e+00
   2.3500638e+00   5.2500000e+02   8.2917304e-13   0.0000000e+00
   2.3600641e+00   5.2600000e+02   9.1799472e-13   0.0000000e+00
   2.3700643e+00   5.2500000e+02   1.0159622e-12   0.0000000e+00
   2.3800646e+00   5.2500000e+02   1.1239786e-12   0.0000000e+00
   2.3900649e+00   5.2500000e+02   1.2430319e-12   0.0000000e+00
   2.4000651e+00   5.2500000e+02   1.3742034e-12   0.0000000e+00
   2.4100654e+00   5.2500000e+02   1.5186753e-12   0.0000000e+00
   2.4200657e+00   5.2400000e+02   1.6777401e-12   0.0000000e+00
   2.4300660e+00   5.2500000e+02   1.8528105e-12   0.0000000e+00
   2.4400662e+00   5.2500000e+02   2.0454294e-12   0.0000000e+00
   2.4500665e+00   5.2500000e+02   2.2572824e-12   0.0000000e+00
   2.4600668e+00   5.2500000e+02   2.4902091e-12   0.0000000e+00
   2.4700670e+00   5.2500000e+02   2.7462176e-12   0.0000000e+00
   2.4800673e+00   5.2400000e+02   3.0274985e-12   0.0000000e+00
   2.4900676e+00   5.2500000e+02   3.3364407e-12   0.0000000e+00
   2.5000679e+00   5.2400000e+02   3.6756489e-12   0.0000000e+00
   2.5100681e+00   5.2400000e+02   4.0479618e-12   0.0000000e+00
   2.5200684e+00   5.2400000e+02   4.4564721e-12   0.0000000e+00
   2.5300687e+00   5.2400000e+02   4.9045482e-12   0.0000000e+00
   2.5400689e+00   5.2400000e+02   5.3958576e-12   0.0000000e+00
   2.5500692e+00   5.2400000e+02   5.9343918e-12   0.0000000e+00
   2.5600695e+00   5.2500000e+02   6.5244938e-12   0.0000000e+00
   2.5700698e+00   5.2500000e+02   7.1708875e-12   0.0000000e+00
   2.5800700e+00   5.2400000e+02   7.8787093e-12   0.0000000e+00
   2.5900703e+00   5.2400000e+02   8.6535423e-12   0.0000000e+00
   2.6000706e+00   5.2500000e+02   9.5014532e-12   0.0000000e+00
   2.6100708e+00   5.2500000e+02   1.0429032e-11   0.0000000e+00
   2.6200711e+00   5.2500000e+02   1.1443435e-11   0.0000000e+00
   2.6300714e+00   5.2500000e+02   1.2552430e-11   0.0000000e+00
   2.6400717e+00   5.2500000e+02   1.3764447e-11   0.0000000e+00
   2.6500719e+00   5.2500000e+02   1.5088634e-11   0.0000000e+00
   2.6600722e+00   5.2500000e+02   1.6534907e-11   0.0000000e+00
   2.6700725e+00   5.2500000e+02   1.8114021e-11   0.0000000e+00
   2.6800727e+00   5.2500000e+02   1.9837630e-11   0.0000000e+00
   2.6900730e+00   5.2500000e+02   2.1718363e-11   0.0000000e+00
   2.7000733e+00   5.2500000e+02   2.3769897e-11   0.0000000e+00
   2.7100736e+00   5.2600000e+02   2.6007042e-11   0.0000000e+00
   2.7200738e+00   5.2600000e+02   2.8445830e-11   0.0000000e+00
   2.7300741e+00   5.2600000e+02   3.1103608e-11   0.0000000e+00
   2.7400744e+00   5.2600000e+02   3.3999144e-11   0.0000000e+00
   2.7500746e+00   5.2500000e+02   3.7152732e-11   0.0000000e+00
   2.7600749e+00   5.2600000e+02   4.0586315e-11   0.0000000e+00
   2.7700752e+00   5.2600000e+02   4.4323606e-11   0.0000000e+00
   2.7800755e+00   5.2600000e+02   4.8390226e-11   0.0000000e+00
   2.7900757e+00   5.2600000e+02   5.2813851e-11   0.0000000e+00
   2.8000760e+00   5.2600000e+02   5.7624363e-11   0.0000000e+00
   2.8100763e+00   5.2700000e+02   6.2854018e-11   0.0000000e+00
   2.8200765e+00   5.2700000e+02   6.8537627e-11   0.0000000e+00
   2.8300768e+00   5.2700000e+02   7.4712741e-11   0.0000000e+00
   2.8400771e+00   5.2700000e+02   8.1419862e-11   0.0000000e+00
   2.8500774e+00   5.2700000e+02   8.8702653e-11   0.0000000e+00
   2.8600776e+00   5.2700000e+02   9.6608180e-11   0.0000000e+00
   2.8700779e+00   5.2700000e+02   1.0518715e-10   0.0000000e+00
   2.8800782e+00   5.2800000e+02   1.1449420e-10   0.0000000e+00
   2.8900784e+00   5.2700000e+02   1.2458814e-10   0.0000000e+00
   2.9000787e+00   5.2700000e+02   1.3553231e-10   0.0000000e+00
   2.9100790e+00   5.2700000e+02   1.4739486e-10   0.0000000e+00
   2.9200793e+00   5.2700000e+02   1.6024912e-10   0.0000000e+00
   2.9300795e+00   5.2800000e+02   1.7417396e-10   0.0000000e+00
   2.9400798e+00   5.2800000e+02   1.8925421e-10   0.0000000e+00
   2.9500801e+00   5.2900000e+02   2.0558101e-10   0.0000000e+00
   2.9600803e+00   5.3000000e+02   2.2325236e-10   0.0000000e+00
   2.9700806e+00   5.3200000e+02   2.4237351e-10   0.0000000e+00
   2.9800809e+00   5.3300000e+02   2.6305752e-10   0.0000000e+00
   2.9900812e+00   5.3400000e+02   2.8542577e-10   0.0000000e+00
   3.0000814e+00   5.3500000e+02   3.0960855e-10   0.0000000e+00
   3.0100817e+00   5.3600000e+02   3.3574570e-10   0.0000000e+00
   3.0200820e+00   5.3600000e+02   3.6398722e-10   0.0000000e+00
   3.0300822e+00   5.3700000e+02   3.9449398e-10   0.0000000e+00
   3.0400825e+00   5.3700000e+02   4.2743848e-10   0.0000000e+00
   3.0500828e+00   5.3700000e+02   4.6300559e-10   0.0000000e+00
   3.0600831e+00   5.3700000e+02   5.0139344e-10   0.0000000e+00
   3.0700833e+00   5.3800000e+02   5.4281427e-10   0.0000000e+00
   3.0800836e+00   5.3800000e+02   5.8749539e-10   0.0000000e+00
   3.0900839e+00   5.3700000e+02   6.3568014e-10   0.0000000e+00
   3.1000841e+00   5.3600000e+02   6.8762904e-10   0.0000000e+00
   3.1100844e+00   5.3500000e+02   7.4362081e-10   0.0000000e+00
   3.1200847e+00   5.3400000e+02   8.0395364e-10   0.0000000e+00
   3.1300850e+00   5.3200000e+02   8.6894643e-10   0.0000000e+00
   3.1400852e+00   5.3100000e+02   9.3894013e-10   0.0000000e+00
   3.1500855e+00   5.2900000e+02   1.0142992e-09   0.0000000e+00
   3.1600858e+00   5.2800000e+02   1.0954130e-09   0.0000000e+00
   3.1700861e+00   5.2600000e+02   1.1826977e-09   0.0000000e+00
   3.1800863e+00   5.2400000e+02   1.2765974e-09   0.0000000e+00
   3.1900866e+00   5.2300000e+02   1.3775867e-09   0.0000000e+00
   3.2000869e+00   5.2200000e+02   1.4861717e-09   0.0000000e+00
   3.2100871e+00   5.2100000e+02   1.6028929e-09   0.0000000e+00
   3.2200874e+00   5.2000000e+02   1.7283266e-09   0.0000000e+00
   3.2300877e+00   5.1900000e+02   1.8630876e-09   0.0000000e+00
   3.2400880e+00   5.1900000e+02   2.0078314e-09   0.0000000e+00
   3.2500882e+00   5.1800000e+02   2.1632567e-09   0.0000000e+00
   3.2600885e+00   5.1800000e+02   2.3301079e-09   0.0000000e+00
   3.2700888e+00   5.1800000e+02   2.5091783e-09   0.0000000e+00
   3.2800890e+00   5.1800000e+02   2.7013128e-09   0.0000000e+00
   3.2900893e+00   5.1800000e+02   2.9074108e-09   0.0000000e+00
   3.3000896e+00   5.1800000e+02   3.1284298e-09   0.0000000e+00
   3.3100899e+00   5.1800000e+02   3.3653890e-09   0.0000000e+00
   3.3200901e+00   5.1900000e+02   3.6193724e-09   0.0000000e+00
   3.3300904e+00   5.1900000e+02   3.8915332e-09   0.0000000e+00
   3.3400907e+00   5.1900000e+02   4.1830975e-09   0.0000000e+00
   3.3500909e+00   5.1900000e+02   4.4953688e-09   0.0000000e+00
   3.3600912e+00   5.1800000e+02   4.8297325e-09   0.0000000e+00
   3.3700915e+00   5.1900000e+02   5.1876603e-09   0.0000000e+00
   3.3800918e+00   5.1900000e+02   5.5707156e-09   0.0000000e+00
   3.3900920e+00   5.1900000e+02   5.9805588e-09   0.0000000e+00
   3.4000923e+00   5.1900000e+02   6.4189522e-09   0.0000000e+00
   3.4100926e+00   5.2000000e+02   6.8877667e-09   0.0000000e+00
   3.4200928e+00   5.2100000e+02   7.3889870e-09   0.0000000e+00
   3.4300931e+00   5.2100000e+02   7.9247189e-09   0.0000000e+00
   3.4400934e+00   5.2100000e+02   8.4971951e-09   0.0000000e+00
   3.4500937e+00   5.2200000e+02   9.1087833e-09   0.0000000e+00
   3.4600939e+00   5.2200000e+02   9.7619927e-09   0.0000000e+00
   3.4700942e+00   5.2200000e+02   1.0459482e-08   0.0000000e+00
   3.4800945e+00   5.2300000e+02   1.1204069e-08   0.0000000e+00
   3.4900947e+00   5.2200000e+02   1.1998737e-08   0.0000000e+00
   3.5000950e+00   5.2200000e+02   1.2846645e-08   0.0000000e+00
   3.5100953e+00   5.2200000e+02   1.3751136e-08   0.0000000e+00
   3.5200956e+00   5.2100000e+02   1.4715750e-08   0.0000000e+00
   3.5300958e+00   5.2200000e+02   1.5744229e-08   0.0000000e+00
   3.5400961e+00   5.2100000e+02   1.6840536e-08   0.0000000e+00
   3.5500964e+00   5.2100000e+02   1.8008855e-08   0.0000000e+00
   3.5600966e+00   5.2200000e+02   1.9253615e-08   0.0000000e+00
   3.5700969e+00   5.2300000e+02   2.0579494e-08   0.0000000e+00
   3.5800972e+00   5.2300000e+02   2.1991435e-08   0.0000000e+00
   3.5900975e+00   5.2300000e+02   2.3494660e-08   0.0000000e+00
   3.6000977e+00   5.2400000e+02   2.5094682e-08   0.0000000e+00
   3.6100980e+00   5.2400000e+02   2.6797324e-08   0.0000000e+00
   3.6200983e+00   5.2500000e+02   2.8608730e-08   0.0000000e+00
   3.6300985e+00   5.2500000e+02   3.0535384e-08   0.0000000e+00
   3.6400988e+00   5.2700000e+02   3.2584127e-08   0.0000000e+00
   3.6500991e+00   5.2700000e+02   3.4762171e-08   0.0000000e+00
   3.6600994e+00   5.2900000e+02   3.7077124e-08   0.0000000e+00
   3.6700996e+00   5.3000000e+02   3.9537003e-08   0.0000000e+00
   3.6800999e+00   5.3100000e+02   4.2150256e-08   0.0000000e+00
   3.6901002e+00   5.3100000e+02   4.4925787e-08   0.0000000e+00
   3.7001004e+00   5.3200000e+02   4.7872969e-08   0.0000000e+00
   3.7101007e+00   5.3300000e+02   5.1001676e-08   0.0000000e+00
   3.7201010e+00   5.3400000e+02   5.4322301e-08   0.0000000e+00
   3.7301013e+00   5.3400000e+02   5.7845781e-08   0.0000000e+00
   3.7401015e+00   5.3400000e+02   6.1583625e-08   0.0000000e+00
   3.7501018e+00   5.3400000e+02   6.5547937e-08   0.0000000e+00
   3.7601021e+00   5.3400000e+02   6.9751449e-08   0.0000000e+00
   3.7701023e+00   5.3400000e+02   7.4207543e-08   0.0000000e+00
   3.7801026e+00   5.3400000e+02   7.8930285e-08   0.0000000e+00
   3.7901029e+00   5.3400000e+02   8.3934457e-08   0.0000000e+00
   3.8001032e+00   5.3400000e+02   8.9235585e-08   0.0000000e+00
   3.8101034e+00   5.3400000e+02   9.4849976e-08   0.0000000e+00
   3.8201037e+00   5.3400000e+02   1.0079475e-07   0.0000000e+00
   3.8301040e+00   5.3400000e+02   1.0708788e-07   0.0000000e+00
   3.8401042e+00   5.3400000e+02   1.1374822e-07   0.0000000e+00
   3.8501045e+00   5.3300000e+02   1.2079555e-07   0.0000000e+00
   3.8601048e+00   5.3400000e+02   1.2825063e-07   0.0000000e+00
   3.8701051e+00   5.3300000e+02   1.3613521e-07   0.0000000e+00
   3.8801053e+00   5.3400000e+02   1.4447209e-07   0.0000000e+00
   3.8901056e+00   5.3300000e+02   1.5328518e-07   0.0000000e+00
   3.9001059e+00   5.3400000e+02   1.6259952e-07   0.0000000e+00
   3.9101061e+00   5.3400000e+02   1.7244133e-07   0.0000000e+00
   3.9201064e+00   5.3500000e+02   1.8283807e-07   0.0000000e+00
   3.9301067e+00   5.3500000e+02   1.9381849e-07   0.0000000e+00
   3.9401070e+00   5.3500000e+02   2.0541269e-07   0.0000000e+00
   3.9501072e+00   5.3500000e+02   2.1765212e-07   0.0000000e+00
   3.9601075e+00   5.3600000e+02   2.3056973e-07   0.0000000e+00
   3.9701078e+00   5.3600000e+02   2.4419994e-07   0.0000000e+00
   3.9801080e+00   5.3600000e+02   2.5857875e-07   0.0000000e+00
   3.9901083e+00   5.3600000e+02   2.7374376e-07   0.0000000e+00
   4.0001086e+00   5.3600000e+02   2.8973430e-07   0.0000000e+00
   4.0101089e+00   5.3600000e+02   3.0659139e-07   0.0000000e+00
   4.0201091e+00   5.3600000e+02   3.2435793e-07   0.0000000e+00
   4.0301094e+00   5.3700000e+02   3.4307866e-07   0.0000000e+00
   4.0401097e+00   5.3700000e+02   3.6280029e-07   0.0000000e+00
   4.0501099e+00   5.3800000e+02   3.8357155e-07   0.0000000e+00
   4.0601102e+00   5.3800000e+02   4.0544328e-07   0.0000000e+00
   4.0701105e+00   5.3900000e+02   4.2846848e-07   0.0000000e+00
   4.0801108e+00   5.4000000e+02   4.5270242e-07   0.0000000e+00
   4.0901110e+00   5.4100000e+02   4.7820268e-07   0.0000000e+00
   4.1001113e+00   5.4200000e+02   5.0502927e-07   0.0000000e+00
   4.1101116e+00   5.4200000e+02   5.3324469e-07   0.0000000e+00
   4.1201118e+00   5.4300000e+02   5.6291400e-07   0.0000000e+00
   4.1301121e+00   5.4300000e+02   5.9410496e-07   0.0000000e+00
   4.1401124e+00   5.4400000e+02   6.2688806e-07   0.0000000e+00
   4.1501127e+00   5.4500000e+02   6.6133666e-07   0.0000000e+00
   4.1601129e+00   5.4700000e+02   6.9752702e-07   0.0000000e+00
   4.1701132e+00   5.4800000e+02   7.3553847e-07   0.0000000e+00
   4.1801135e+00   5.4900000e+02   7.7545345e-07   0.0000000e+00
   4.1901137e+00   5.5000000e+02   8.1735763e-07   0.0000000e+00
   4.2001140e+00   5.5200000e+02   8.6134000e-07   0.0000000e+00
   4.2101143e+00   5.5300000e+02   9.0749298e-07   0.0000000e+00
   4.2201146e+00   5.5500000e+02   9.5591252e-07   0.0000000e+00
   4.2301148e+00   5.5600000e+02   1.0066982e-06   0.0000000e+00
   4.2401151e+00   5.5900000e+02   1.0599533e-06   0.0000000e+00
   4.2501154e+00   5.6000000e+02   1.1157850e-06   0.0000000e+00
   4.2601156e+00   5.6300000e+02   1.1743045e-06   0.0000000e+00
   4.2701159e+00   5.6600000e+02   1.2356268e-06   0.0000000e+00
   4.2801162e+00   5.6800000e+02   1.2998713e-06   0.0000000e+00
   4.2901165e+00   5.7200000e+02   1.3671617e-06   0.0000000e+00
   4.3001167e+00   5.7500000e+02   1.4376260e-06   0.0000000e+00
   4.3101170e+00   5.7700000e+02   1.5113967e-06   0.0000000e+00
   4.3201173e+00   5.8000000e+02   1.5886109e-06   0.0000000e+00
   4.3301175e+00   5.8300000e+02   1.6694104e-06   0.0000000e+00
   4.3401178e+00   5.8500000e+02   1.7539422e-06   0.0000000e+00
   4.3501181e+00   5.8800000e+02   1.8423577e-06   0.0000000e+00
   4.3601184e+00   5.9000000e+02   1.9348137e-06   0.0000000e+00
   4.3701186e+00   5.9100000e+02   2.0314723e-06   0.0000000e+00
   4.3801189e+00   5.9300000e+02   2.1325006e-06   0.0000000e+00
   4.3901192e+00   5.9500000e+02   2.2380713e-06   0.0000000e+00
   4.4001194e+00   5.9600000e+02   2.3483625e-06   0.0000000e+00
   4.4101197e+00   5.9800000e+02   2.4635581e-06   0.0000000e+00
   4.4201200e+00   5.9900000e+02   2.5838475e-06   0.0000000e+00
   4.4301203e+00   6.0000000e+02   2.7094263e-06   0.0000000e+00
   4.4401205e+00   6.0100000e+02   2.8404957e-06   0.0000000e+00
   4.4501208e+00   6.0100000e+02   2.9772630e-06   0.0000000e+00
   4.4601211e+00   6.0100000e+02   3.1199420e-06   0.0000000e+00
   4.4701213e+00   6.0200000e+02   3.2687522e-06   0.0000000e+00
   4.4801216e+00   6.0300000e+02   3.4239199e-06   0.0000000e+00
   4.4901219e+00   6.0300000e+02   3.5856776e-06   0.0000000e+00
   4.5001222e+00   6.0300000e+02   3.7542643e-06   0.0000000e+00
   4.5101224e+00   6.0300000e+02   3.9299258e-06   0.0000000e+00
   4.5201227e+00   6.0200000e+02   4.1129142e-06   0.0000000e+00
   4.5301230e+00   6.0100000e+02   4.3034887e-06   0.0000000e+00
   4.5401232e+00   6.0100000e+02   4.5019151e-06   0.0000000e+00
   4.5501235e+00   6.0000000e+02   4.7084660e-06   0.0000000e+00
   4.5601238e+00   6.0000000e+02   4.9234211e-06   0.0000000e+00
   4.5701241e+00   5.9900000e+02   5.1470668e-06   0.0000000e+00
   4.5801243e+00   5.9900000e+02   5.3796968e-06   0.0000000e+00
   4.5901246e+00   5.9800000e+02   5.6216114e-06   0.0000000e+00
   4.6001249e+00   5.9800000e+02   5.8731181e-06   0.0000000e+00
   4.6101251e+00   5.9700000e+02   6.1345315e-06   0.0000000e+00
   4.6201254e+00   5.9600000e+02   6.4061732e-06   0.0000000e+00
   4.6301257e+00   5.9500000e+02   6.6883716e-06   0.0000000e+00
   4.6401260e+00   5.9500000e+02   6.9814622e-06   0.0000000e+00
   4.6501262e+00   5.9400000e+02   7.2857874e-06   0.0000000e+00
   4.6601265e+00   5.9300000e+02   7.6016964e-06   0.0000000e+00
   4.6701268e+00   5.9300000e+02   7.9295454e-06   0.0000000e+00
   4.6801270e+00   5.9200000e+02   8.2696971e-06   0.0000000e+00
   4.6901273e+00   5.9100000e+02   8.6225208e-06   0.0000000e+00
   4.7001276e+00   5.9100000e+02   8.9883924e-06   0.0000000e+00
   4.7101279e+00   5.9000000e+02   9.3676940e-06   0.0000000e+00
   4.7201281e+00   5.8900000e+02   9.7608141e-06   0.0000000e+00
   4.7301284e+00   5.8800000e+02   1.0168147e-05   0.0000000e+00
   4.7401287e+00   5.8800000e+02   1.0590093e-05   0.0000000e+00
   4.7501289e+00   5.8600000e+02   1.1027058e-05   0.0000000e+00
   4.7601292e+00   5.8500000e+02   1.1479453e-05   0.0000000e+00
   4.7701295e+00   5.8400000e+02   1.1947694e-05   0.0000000e+00
   4.7801298e+00   5.8400000e+02   1.2432203e-05   0.0000000e+00
   4.7901300e+00   5.8300000e+02   1.2933405e-05   0.0000000e+00
   4.8001303e+00   5.8300000e+02   1.3451730e-05   0.0000000e+00
   4.8101306e+00   5.8200000e+02   1.3987611e-05   0.0000000e+00
   4.8201308e+00   5.8100000e+02   1.4541485e-05   0.0000000e+00
   4.8301311e+00   5.8000000e+02   1.5113792e-05   0.0000000e+00
   4.8401314e+00   5.8000000e+02   1.5704975e-05   0.0000000e+00
   4.8501317e+00   5.7900000e+02   1.6315477e-05   0.0000000e+00
   4.8601319e+00   5.7900000e+02   1.6945745e-05   0.0000000e+00
   4.8701322e+00   5.7800000e+02   1.7596225e-05   0.0000000e+00
   4.8801325e+00   5.7700000e+02   1.8267365e-05   0.0000000e+00
   4.8901327e+00   5.7600000e+02   1.8959611e-05   0.0000000e+00
   4.9001330e+00   5.7600000e+02   1.9673409e-05   0.0000000e+00
   4.9101333e+00   5.7500000e+02   2.0409202e-05   0.0000000e+00
   4.9201336e+00   5.7400000e+02   2.1167433e-05   0.0000000e+00
   4.9301338e+00   5.7300000e+02   2.1948540e-05   0.0000000e+00
   4.9401341e+00   5.7400000e+02   2.2752956e-05   0.0000000e+00
   4.9501344e+00   5.7300000e+02   2.3581110e-05   0.0000000e+00
   4.9601346e+00   5.7300000e+02   2.4433426e-05   0.0000000e+00
   4.9701349e+00   5.7300000e+02   2.5310320e-05   0.0000000e+00
   4.9801352e+00   5.7200000e+02   2.6212199e-05   0.0000000e+00
   4.9901355e+00   5.7200000e+02   2.7139463e-05   0.0000000e+00
   5.0001357e+00   5.7200000e+02   2.8092500e-05   0.0000000e+00
   5.0101360e+00   5.7200000e+02   2.9071688e-05   0.0000000e+00
   5.0201363e+00   5.7100000e+02   3.0077390e-05   0.0000000e+00
   5.0301365e+00   5.7100000e+02   3.1109958e-05   0.0000000e+00
   5.0401368e+00   5.7100000e+02   3.2169725e-05   0.0000000e+00
   5.0501371e+00   5.7100000e+02   3.3257011e-05   0.0000000e+00
   5.0601374e+00   5.7000000e+02   3.4372115e-05   0.0000000e+00
   5.0701376e+00   5.7000000e+02   3.5515317e-05   0.0000000e+00
   5.0801379e+00   5.7000000e+02   3.6686875e-05   0.0000000e+00
   5.0901382e+00   5.7000000e+02   3.7887023e-05   0.0000000e+00
   5.1001384e+00   5.6900000e+02   3.9115972e-05   0.0000000e+00
   5.1101387e+00   5.6900000e+02   4.0373905e-05   0.0000000e+00
   5.1201390e+00   5.6900000e+02   4.1660977e-05   0.0000000e+00
   5.1301393e+00   5.6900000e+02   4.2977310e-05   0.0000000e+00
   5.1401395e+00   5.6900000e+02   4.4322995e-05   0.0000000e+00
   5.1501398e+00   5.6800000e+02   4.5698088e-05   0.0000000e+00
   5.1601401e+00   5.6800000e+02   4.7102609e-05   0.0000000e+00
   5.1701403e+00   5.6800000e+02   4.8536536e-05   0.0000000e+00
   5.1801406e+00   5.6800000e+02   4.9999807e-05   0.0000000e+00
   5.1901409e+00   5.6800000e+02   5.1492315e-05   0.0000000e+00
   5.2001412e+00   5.6800000e+02   5.3013908e-05   0.0000000e+00
   5.2101414e+00   5.6700000e+02   5.4564382e-05   0.0000000e+00
   5.2201417e+00   5.6700000e+02   5.6143484e-05   0.0000000e+00
   5.2301420e+00   5.6600000e+02   5.7750904e-05   0.0000000e+00
   5.2401422e+00   5.6600000e+02   5.9386277e-05   0.0000000e+00
   5.2501425e+00   5.6600000e+02   6.1049174e-05   0.0000000e+00
   5.2601428e+00   5.6500000e+02   6.2739105e-05   0.0000000e+00
   5.2701431e+00   5.6400000e+02   6.4455515e-05   0.0000000e+00
   5.2801433e+00   5.6400000e+02   6.6197776e-05   0.0000000e+00
   5.2901436e+00   5.6400000e+02   6.7965188e-05   0.0000000e+00
   5.3001439e+00   5.6300000e+02   6.9756978e-05   0.0000000e+00
   5.3101441e+00   5.6300000e+02   7.1572288e-05   0.0000000e+00
   5.3201444e+00   5.6300000e+02   7.3410182e-05   0.0000000e+00
   5.3301447e+00   5.6300000e+02   7.5269634e-05   0.0000000e+00
   5.3401450e+00   5.6100000e+02   7.7149529e-05   0.0000000e+00
   5.3501452e+00   5.6100000e+02   7.9048658e-05   0.0000000e+00
   5.3601455e+00   5.6100000e+02   8.0965713e-05   0.0000000e+00
   5.3701458e+00   5.6000000e+02   8.2899285e-05   0.0000000e+00
   5.3801460e+00   5.6000000e+02   8.4847861e-05   0.0000000e+00
   5.3901463e+00   5.6000000e+02   8.6809815e-05   0.0000000e+00
   5.4001466e+00   5.5900000e+02   8.8783410e-05   0.0000000e+00
   5.4101469e+00   5.5900000e+02   9.0766788e-05   0.0000000e+00
   5.4201471e+00   5.5800000e+02   9.2757972e-05   0.0000000e+00
   5.4301474e+00   5.5800000e+02   9.4754856e-05   0.0000000e+00
   5.4401477e+00   5.5800000e+02   9.6755204e-05   0.0000000e+00
   5.4501479e+00   5.5800000e+02   9.8756644e-05   0.0000000e+00
   5.4601482e+00   5.5600000e+02   1.0075666e-04   0.0000000e+00
   5.4701485e+00   5.5600000e+02   1.0275261e-04   0.0000000e+00
   5.4801488e+00   5.5600000e+02   1.0474167e-04   0.0000000e+00
   5.4901490e+00   5.5600000e+02   1.0672089e-04   0.0000000e+00
   5.5001493e+00   5.5600000e+02   1.0868715e-04   0.0000000e+00
   5.5101496e+00   5.5600000e+02   1.1063718e-04   0.0000000e+00
   5.5201498e+00   5.5500000e+02   1.1256751e-04   0.0000000e+00
   5.5301501e+00   5.5500000e+02   1.1447453e-04   0.0000000e+00
   5.5401504e+00   5.5400000e+02   1.1635444e-04   0.0000000e+00
   5.5501507e+00   5.5400000e+02   1.1820326e-04   0.0000000e+00
   5.5601509e+00   5.5300000e+02   1.2001682e-04   0.0000000e+00
   5.5701512e+00   5.5300000e+02   1.2179075e-04   0.0000000e+00
   5.5801515e+00   5.5200000e+02   1.2352050e-04   0.0000000e+00
   5.5901517e+00   5.5200000e+02   1.2520130e-04   0.0000000e+00
   5.6001520e+00   5.5100000e+02   1.2682819e-04   0.0000000e+00
   5.6101523e+00   5.5100000e+02   1.2839599e-04   0.0000000e+00
   5.6201526e+00   5.5100000e+02   1.2989930e-04   0.0000000e+00
   5.6301528e+00   5.5100000e+02   1.3133250e-04   0.0000000e+00
   5.6401531e+00   5.5000000e+02   1.3268975e-04   0.0000000e+00
   5.6501534e+00   5.4900000e+02   1.3396497e-04   0.0000000e+00
   5.6601536e+00   5.4900000e+02   1.3515187e-04   0.0000000e+00
   5.6701539e+00   5.4800000e+02   1.3624387e-04   0.0000000e+00
   5.6801542e+00   5.4800000e+02   1.3723421e-04   0.0000000e+00
   5.6901545e+00   5.4800000e+02   1.3811582e-04   0.0000000e+00
   5.7001547e+00   5.4700000e+02   1.3888142e-04   0.0000000e+00
   5.7101550e+00   5.4700000e+02   1.3952345e-04   0.0000000e+00
   5.7201553e+00   5.4700000e+02   1.4003411e-04   0.0000000e+00
   5.7301555e+00   5.4700000e+02   1.4040531e-04   0.0000000e+00
   5.7401558e+00   5.4700000e+02   1.4062870e-04   0.0000000e+00
   5.7501561e+00   5.4800000e+02   1.4069568e-04   0.0000000e+00
   5.7601564e+00   5.4800000e+02   1.4059735e-04   0.0000000e+00
   5.7701566e+00   5.4900000e+02   1.4032453e-04   0.0000000e+00
   5.7801569e+00   5.5000000e+02   1.3986777e-04   0.0000000e+00
   5.7901572e+00   5.5000000e+02   1.3921734e-04   0.0000000e+00
   5.8001574e+00   5.5000000e+02   1.3836321e-04   0.0000000e+00
   5.8101577e+00   5.5100000e+02   1.3729507e-04   0.0000000e+00
   5.8201580e+00   5.5100000e+02   1.3600232e-04   0.0000000e+00
   5.8301583e+00   5.5100000e+02   1.3447407e-04   0.0000000e+00
   5.8401585e+00   5.5100000e+02   1.3269911e-04   0.0000000e+00
   5.8501588e+00   5.5100000e+02   1.3066598e-04   0.0000000e+00
   5.8601591e+00   5.5100000e+02   1.2836288e-04   0.0000000e+00
   5.8701593e+00   5.5100000e+02   1.2577775e-04   0.0000000e+00
   5.8801596e+00   5.5100000e+02   1.2289822e-04   0.0000000e+00
   5.8901599e+00   5.5000000e+02   1.1971163e-04   0.0000000e+00
   5.9001602e+00   5.5000000e+02   1.1620500e-04   0.0000000e+00
   5.9101604e+00   5.4900000e+02   1.1236510e-04   0.0000000e+00
   5.9201607e+00   5.4900000e+02   1.0817837e-04   0.0000000e+00
   5.9301610e+00   5.4800000e+02   1.0363099e-04   0.0000000e+00
   5.9401612e+00   5.4800000e+02   9.8708831e-05   0.0000000e+00
   5.9501615e+00   5.4700000e+02   9.3397502e-05   0.0000000e+00
   5.9601618e+00   5.4600000e+02   8.7682317e-05   0.0000000e+00
   5.9701621e+00   5.4500000e+02   8.1548324e-05   0.0000000e+00
   5.9801623e+00   5.4400000e+02   7.4980297e-05   0.0000000e+00
   5.9901626e+00   5.4300000e+02   6.7962747e-05   0.0000000e+00
   6.0001629e+00   5.4300000e+02   6.0479927e-05   0.0000000e+00
   6.0101631e+00   5.4200000e+02   5.2515840e-05   0.0000000e+00
   6.0201634e+00   5.4200000e+02   4.4054244e-05   0.0000000e+00
   6.0301637e+00   5.4100000e+02   3.5078661e-05   0.0000000e+00
   6.0401640e+00   5.4000000e+02   2.5572389e-05   0.0000000e+00
   6.0501642e+00   5.3900000e+02   1.5518506e-05   0.0000000e+00
   6.0601645e+00   5.3900000e+02   4.8998860e-06   0.0000000e+00
   6.0701648e+00   5.3800000e+02  -6.3007939e-06   0.0000000e+00
   6.0801650e+00   5.3700000e+02  -1.8101039e-05   0.0000000e+00
   6.0901653e+00   5.3700000e+02  -3.0518525e-05   0.0000000e+00
   6.1001656e+00   5.3600000e+02  -4.3571085e-05   0.0000000e+00
   6.1101659e+00   5.3600000e+02  -5.7276693e-05   0.0000000e+00
   6.1201661e+00   5.3500000e+02  -7.1653450e-05   0.0000000e+00
   6.1301664e+00   5.3500000e+02  -8.6719567e-05   0.0000000e+00
   6.1401667e+00   5.3400000e+02  -1.0249335e-04   0.0000000e+00
   6.1501669e+00   5.3300000e+02  -1.1899318e-04   0.0000000e+00
   6.1601672e+00   5.3300000e+02  -1.3623748e-04   0.0000000e+00
   6.1701675e+00   5.3200000e+02  -1.5424473e-04   0.0000000e+00
   6.1801678e+00   5.3100000e+02  -1.7303340e-04   0.0000000e+00
   6.1901680e+00   5.3100000e+02  -1.9262197e-04   0.0000000e+00
   6.2001683e+00   5.3100000e+02  -2.1302889e-04   0.0000000e+00
   6.2101686e+00   5.3000000e+02  -2.3427252e-04   0.0000000e+00
   6.2201688e+00   5.3000000e+02  -2.5637118e-04   0.0000000e+00
   6.2301691e+00   5.3000000e+02  -2.7934305e-04   0.0000000e+00
   6.2401694e+00   5.2900000e+02  -3.0320619e-04   0.0000000e+00
   6.2501697e+00   5.2900000e+02  -3.2797848e-04   0.0000000e+00
   6.2601699e+00   5.2800000e+02  -3.5367760e-04   0.0000000e+00
   6.2701702e+00   5.2800000e+02  -3.8032102e-04   0.0000000e+00
   6.2801705e+00   5.2700000e+02  -4.0792594e-04   0.0000000e+00
   6.2901707e+00   5.2700000e+02  -4.3650925e-04   0.0000000e+00
   6.3001710e+00   5.2700000e+02  -4.6608753e-04   0.0000000e+00
   6.3101713e+00   5.2700000e+02  -4.9667698e-04   0.0000000e+00
   6.3201716e+00   5.2700000e+02  -5.2829339e-04   0.0000000e+00
   6.3301718e+00   5.2600000e+02  -5.6095213e-04   0.0000000e+00
   6.3401721e+00   5.2700000e+02  -5.9466805e-04   0.0000000e+00
   6.3501724e+00   5.2700000e+02  -6.2945550e-04   0.0000000e+00
   6.3601726e+00   5.2700000e+02  -6.6532826e-04   0.0000000e+00
   6.3701729e+00   5.2600000e+02  -7.0229948e-04   0.0000000e+00
   6.3801732e+00   5.2700000e+02  -7.4038166e-04   0.0000000e+00
   6.3901735e+00   5.2700000e+02  -7.7958660e-04   0.0000000e+00
   6.4001737e+00   5.2700000e+02  -8.1992534e-04   0.0000000e+00
   6.4101740e+00   5.2700000e+02  -8.6140812e-04   0.0000000e+00
   6.4201743e+00   5.2700000e+02  -9.0404431e-04   0.0000000e+00
   6.4301745e+00   5.2800000e+02  -9.4784239e-04   0.0000000e+00
   6.4401748e+00   5.2700000e+02  -9.9280989e-04   0.0000000e+00
   6.4501751e+00   5.2700000e+02  -1.0389533e-03   0.0000000e+00
   6.4601754e+00   5.2700000e+02  -1.0862781e-03   0.0000000e+00
   6.4701756e+00   5.2800000e+02  -1.1347885e-03   0.0000000e+00
   6.4801759e+00   5.2700000e+02  -1.1844877e-03   0.0000000e+00
   6.4901762e+00   5.2700000e+02  -1.2353776e-03   0.0000000e+00
   6.5001764e+00   5.2700000e+02  -1.2874587e-03   0.0000000e+00
   6.5101767e+00   5.2700000e+02  -1.3407302e-03   0.0000000e+00
   6.5201770e+00   5.2700000e+02  -1.3951899e-03   0.0000000e+00
   6.5301773e+00   5.2700000e+02  -1.4508342e-03   0.0000000e+00
   6.5401775e+00   5.2700000e+02  -1.5076576e-03   0.0000000e+00
   6.5501778e+00   5.2700000e+02  -1.5656534e-03   0.0000000e+00
   6.5601781e+00   5.2700000e+02  -1.6248130e-03   0.0000000e+00
   6.5701783e+00   5.2700000e+02  -1.6851259e-03   0.0000000e+00
   6.5801786e+00   5.2600000e+02  -1.7465800e-03   0.0000000e+00
   6.5901789e+00   5.2700000e+02  -1.8091612e-03   0.0000000e+00
   6.6001792e+00   5.2600000e+02  -1.8728535e-03   0.0000000e+00
   6.6101794e+00   5.2700000e+02  -1.9376388e-03   0.0000000e+00
   6.6201797e+00   5.2700000e+02  -2.0034969e-03   0.0000000e+00
   6.6301800e+00   5.2700000e+02  -2.0704054e-03   0.0000000e+00
   6.6401802e+00   5.2700000e+02  -2.1383397e-03   0.0000000e+00
   6.6501805e+00   5.2700000e+02  -2.2072727e-03   0.0000000e+00
   6.6601808e+00   5.2700000e+02  -2.2771752e-03   0.0000000e+00
   6.6701811e+00   5.2700000e+02  -2.3480153e-03   0.0000000e+00
   6.6801813e+00   5.2700000e+02  -2.4197584e-03   0.0000000e+00
   6.6901816e+00   5.2700000e+02  -2.4923678e-03   0.0000000e+00
   6.7001819e+00   5.2700000e+02  -2.5658034e-03   0.0000000e+00
   6.7101821e+00   5.2700000e+02  -2.6400229e-03   0.0000000e+00
   6.7201824e+00   5.2700000e+02  -2.7149809e-03   0.0000000e+00
   6.7301827e+00   5.2700000e+02  -2.7906290e-03   0.0000000e+00
   6.7401830e+00   5.2700000e+02  -2.8669160e-03   0.0000000e+00
   6.7501832e+00   5.2700000e+02  -2.9437875e-03   0.0000000e+00
   6.7601835e+00   5.2600000e+02  -3.0211858e-03   0.0000000e+00
   6.7701838e+00   5.2700000e+02  -3.0990504e-03   0.0000000e+00
   6.7801840e+00   5.2600000e+02  -3.1773170e-03   0.0000000e+00
   6.7901843e+00   5.2600000e+02  -3.2559183e-03   0.0000000e+00
   6.8001846e+00   5.2700000e+02  -3.3347834e-03   0.0000000e+00
   6.8101849e+00   5.2600000e+02  -3.4138380e-03   0.0000000e+00
   6.8201851e+00   5.2600000e+02  -3.4930041e-03   0.0000000e+00
   6.8301854e+00   5.2700000e+02  -3.5722002e-03   0.0000000e+00
   6.8401857e+00   5.2600000e+02  -3.6513408e-03   0.0000000e+00
   6.8501859e+00   5.2700000e+02  -3.7303371e-03   0.0000000e+00
   6.8601862e+00   5.2700000e+02  -3.8090960e-03   0.0000000e+00
   6.8701865e+00   5.2700000e+02  -3.8875208e-03   0.0000000e+00
   6.8801868e+00   5.2700000e+02  -3.9655108e-03   0.0000000e+00
   6.8901870e+00   5.2700000e+02  -4.0429613e-03   0.0000000e+00
   6.9001873e+00   5.2700000e+02  -4.1197634e-03   0.0000000e+00
   6.9101876e+00   5.2700000e+02  -4.1958042e-03   0.0000000e+00
   6.9201878e+00   5.2700000e+02  -4.2709667e-03   0.0000000e+00
   6.9301881e+00   5.2700000e+02  -4.3451297e-03   0.0000000e+00
   6.9401884e+00   5.2700000e+02  -4.4181676e-03   0.0000000e+00
   6.9501887e+00   5.2700000e+02  -4.4899507e-03   0.0000000e+00
   6.9601889e+00   5.2700000e+02  -4.5603448e-03   0.0000000e+00
   6.9701892e+00   5.2700000e+02  -4.6292116e-03   0.0000000e+00
   6.9801895e+00   5.2700000e+02  -4.6964082e-03   0.0000000e+00
   6.9901897e+00   5.2700000e+02  -4.7617875e-03   0.0000000e+00
   7.0001900e+00   5.2700000e+02  -4.8251978e-03   0.0000000e+00
   7.0101903e+00   5.2800000e+02  -4.8864831e-03   0.0000000e+00
   7.0201906e+00   5.2800000e+02  -4.9454828e-03   0.0000000e+00
   7.0301908e+00   5.2800000e+02  -5.0020322e-03   0.0000000e+00
   7.0401911e+00   5.2900000e+02  -5.0559617e-03   0.0000000e+00
   7.0501914e+00   5.2900000e+02  -5.1070977e-03   0.0000000e+00
   7.0601916e+00   5.2900000e+02  -5.1552618e-03   0.0000000e+00
   7.0701919e+00   5.2900000e+02  -5.2002714e-03   0.0000000e+00
   7.0801922e+00   5.2900000e+02  -5.2419395e-03   0.0000000e+00
   7.0901925e+00   5.3000000e+02  -5.2800747e-03   0.0000000e+00
   7.1001927e+00   5.3100000e+02  -5.3144812e-03   0.0000000e+00
   7.1101930e+00   5.3100000e+02  -5.3449591e-03   0.0000000e+00
   7.1201933e+00   5.3100000e+02  -5.3713042e-03   0.0000000e+00
   7.1301935e+00   5.3200000e+02  -5.3933079e-03   0.0000000e+00
   7.1401938e+00   5.3200000e+02  -5.4107578e-03   0.0000000e+00
   7.1501941e+00   5.3300000e+02  -5.4234372e-03   0.0000000e+00
   7.1601944e+00   5.3300000e+02  -5.4311256e-03   0.0000000e+00
   7.1701946e+00   5.3400000e+02  -5.4335985e-03   0.0000000e+00
   7.1801949e+00   5.3400000e+02  -5.4306277e-03   0.0000000e+00
   7.1901952e+00   5.3400000e+02  -5.4219812e-03   0.0000000e+00
   7.2001954e+00   5.3400000e+02  -5.4074233e-03   0.0000000e+00
   7.2101957e+00   5.3500000e+02  -5.3867152e-03   0.0000000e+00
   7.2201960e+00   5.3500000e+02  -5.3596145e-03   0.0000000e+00
   7.2301963e+00   5.3500000e+02  -5.3258755e-03   0.0000000e+00
   7.2401965e+00   5.3600000e+02  -5.2852496e-03   0.0000000e+00
   7.2501968e+00   5.3600000e+02  -5.2374853e-03   0.0000000e+00
   7.2601971e+00   5.3600000e+02  -5.1823282e-03   0.0000000e+00
   7.2701973e+00   5.3600000e+02  -5.1195215e-03   0.0000000e+00
   7.2801976e+00   5.3600000e+02  -5.0488058e-03   0.0000000e+00
   7.2901979e+00   5.3600000e+02  -4.9699196e-03   0.0000000e+00
   7.3001982e+00   5.3700000e+02  -4.8825996e-03   0.0000000e+00
   7.3101984e+00   5.3700000e+02  -4.7865803e-03   0.0000000e+00
   7.3201987e+00   5.3700000e+02  -4.6815949e-03   0.0000000e+00
   7.3301990e+00   5.3800000e+02  -4.5673753e-03   0.0000000e+00
   7.3401992e+00   5.3800000e+02  -4.4436522e-03   0.0000000e+00
   7.3501995e+00   5.3800000e+02  -4.3101554e-03   0.0000000e+00
   7.3601998e+00   5.3900000e+02  -4.1666143e-03   0.0000000e+00
   7.3702001e+00   5.3900000e+02  -4.0127579e-03   0.0000000e+00
   7.3802003e+00   5.3900000e+02  -3.8483153e-03   0.0000000e+00
   7.3902006e+00   5.4000000e+02  -3.6730158e-03   0.0000000e+00
   7.4002009e+00   5.3900000e+02  -3.4865893e-03   0.0000000e+00
   7.4102011e+00   5.4000000e+02  -3.2887667e-03   0.0000000e+00
   7.4202014e+00   5.4000000e+02  -3.0792801e-03   0.0000000e+00
   7.4302017e+00   5.4000000e+02  -2.8578633e-03   0.0000000e+00
   7.4402020e+00   5.4100000e+02  -2.6242519e-03   0.0000000e+00
   7.4502022e+00   5.4100000e+02  -2.3781841e-03   0.0000000e+00
   7.4602025e+00   5.4100000e+02  -2.1194005e-03   0.0000000e+00
   7.4702028e+00   5.4100000e+02  -1.8476450e-03   0.0000000e+00
   7.4802030e+00   5.4200000e+02  -1.5626650e-03   0.0000000e+00
   7.4902033e+00   5.4200000e+02  -1.2642117e-03   0.0000000e+00
   7.5002036e+00   5.4300000e+02  -9.5204075e-04   0.0000000e+00
   7.5102039e+00   5.4300000e+02  -6.2591255e-04   0.0000000e+00
   7.5202041e+00   5.4400000e+02  -2.8559271e-04   0.0000000e+00
   7.5302044e+00   5.4400000e+02   6.9147466e-05   0.0000000e+00
   7.5402047e+00   5.4400000e+02   4.3853053e-04   0.0000000e+00
   7.5502049e+00   5.4400000e+02   8.2277238e-04   0.0000000e+00
   7.5602052e+00   5.4500000e+02   1.2220818e-03   0.0000000e+00
   7.5702055e+00   5.4500000e+02   1.6366600e-03   0.0000000e+00
   7.5802058e+00   5.4500000e+02   2.0667000e-03   0.0000000e+00
   7.5902060e+00   5.4500000e+02   2.5123861e-03   0.0000000e+00
   7.6002063e+00   5.4500000e+02   2.9738935e-03   0.0000000e+00
   7.6102066e+00   5.4500000e+02   3.4513877e-03   0.0000000e+00
   7.6202068e+00   5.4500000e+02   3.9450239e-03   0.0000000e+00
   7.6302071e+00   5.4400000e+02   4.4549464e-03   0.0000000e+00
   7.6402074e+00   5.4400000e+02   4.9812881e-03   0.0000000e+00
   7.6502077e+00   5.4400000e+02   5.5241700e-03   0.0000000e+00
   7.6602079e+00   5.4400000e+02   6.0837005e-03   0.0000000e+00
   7.6702082e+00   5.4300000e+02   6.6599749e-03   0.0000000e+00
   7.6802085e+00   5.4300000e+02   7.2530745e-03   0.0000000e+00
   7.6902087e+00   5.4200000e+02   7.8630665e-03   0.0000000e+00
   7.7002090e+00   5.4200000e+02   8.4900031e-03   0.0000000e+00
   7.7102093e+00   5.4100000e+02   9.1339209e-03   0.0000000e+00
   7.7202096e+00   5.4000000e+02   9.7948401e-03   0.0000000e+00
   7.7302098e+00   5.3900000e+02   1.0472764e-02   0.0000000e+00
   7.7402101e+00   5.3700000e+02   1.1167680e-02   0.0000000e+00
   7.7502104e+00   5.3600000e+02   1.1879554e-02   0.0000000e+00
   7.7602106e+00   5.3500000e+02   1.2608337e-02   0.0000000e+00
   7.7702109e+00   5.3400000e+02   1.3353957e-02   0.0000000e+00
   7.7802112e+00   5.3200000e+02   1.4116326e-02   0.0000000e+00
   7.7902115e+00   5.3100000e+02   1.4895331e-02   0.0000000e+00
   7.8002117e+00   5.2900000e+02   1.5690842e-02   0.0000000e+00
   7.8102120e+00   5.2800000e+02   1.6502703e-02   0.0000000e+00
   7.8202123e+00   5.2700000e+02   1.7330738e-02   0.0000000e+00
   7.8302125e+00   5.2600000e+02   1.8174747e-02   0.0000000e+00
   7.8402128e+00   5.2400000e+02   1.9034506e-02   0.0000000e+00
   7.8502131e+00   5.2300000e+02   1.9909767e-02   0.0000000e+00
   7.8602134e+00   5.2100000e+02   2.0800256e-02   0.0000000e+00
   7.8702136e+00   5.1900000e+02   2.1705675e-02   0.0000000e+00
   7.8802139e+00   5.1900000e+02   2.2625697e-02   0.0000000e+00
   7.8902142e+00   5.1600000e+02   2.3559969e-02   0.0000000e+00
   7.9002144e+00   5.1500000e+02   2.4508112e-02   0.0000000e+00
   7.9102147e+00   5.1300000e+02   2.5469717e-02   0.0000000e+00
   7.9202150e+00   5.1200000e+02   2.6444347e-02   0.0000000e+00
   7.9302153e+00   5.1100000e+02   2.7431536e-02   0.0000000e+00
   7.9402155e+00   5.1000000e+02   2.8430786e-02   0.0000000e+00
   7.9502158e+00   5.0900000e+02   2.9441571e-02   0.0000000e+00
   7.9602161e+00   5.0800000e+02   3.0463332e-02   0.0000000e+00
   7.9702163e+00   5.0700000e+02   3.1495481e-02   0.0000000e+00
   7.9802166e+00   5.0600000e+02   3.2537395e-02   0.0000000e+00
   7.9902169e+00   5.0400000e+02   3.3588421e-02   0.0000000e+00
   8.0002172e+00   5.0300000e+02   3.4647872e-02   0.0000000e+00
   8.0102174e+00   5.0200000e+02   3.5715026e-02   0.0000000e+00
   8.0202177e+00   5.0200000e+02   3.6789130e-02   0.0000000e+00
   8.0302180e+00   5.0100000e+02   3.7869394e-02   0.0000000e+00
   8.0402182e+00   5.0100000e+02   3.8954996e-02   0.0000000e+00
   8.0502185e+00   4.9900000e+02   4.0045077e-02   0.0000000e+00
   8.0602188e+00   4.9900000e+02   4.1138742e-02   0.0000000e+00
   8.0702191e+00   4.9900000e+02   4.2235064e-02   0.0000000e+00
   8.0802193e+00   4.9900000e+02   4.3333075e-02   0.0000000e+00
   8.0902196e+00   4.9800000e+02   4.4431774e-02   0.0000000e+00
   8.1002199e+00   4.9800000e+02   4.5530124e-02   0.0000000e+00
   8.1102201e+00   4.9800000e+02   4.6627049e-02   0.0000000e+00
   8.1202204e+00   4.9800000e+02   4.7721438e-02   0.0000000e+00
   8.1302207e+00   4.9700000e+02   4.8812142e-02   0.0000000e+00
   8.1402210e+00   4.9700000e+02   4.9897976e-02   0.0000000e+00
   8.1502212e+00   4.9700000e+02   5.0977717e-02   0.0000000e+00
   8.1602215e+00   4.9700000e+02   5.2050106e-02   0.0000000e+00
   8.1702218e+00   4.9700000e+02   5.3113845e-02   0.0000000e+00
   8.1802220e+00   4.9800000e+02   5.4167602e-02   0.0000000e+00
   8.1902223e+00   4.9900000e+02   5.5210005e-02   0.0000000e+00
   8.2002226e+00   4.9900000e+02   5.6239647e-02   0.0000000e+00
   8.2102229e+00   4.9900000e+02   5.7255085e-02   0.0000000e+00
   8.2202231e+00   4.9900000e+02   5.8254838e-02   0.0000000e+00
   8.2302234e+00   4.9900000e+02   5.9237389e-02   0.0000000e+00
   8.2402237e+00   4.9900000e+02   6.0201188e-02   0.0000000e+00
   8.2502239e+00   4.9900000e+02   6.1144647e-02   0.0000000e+00
   8.2602242e+00   5.0000000e+02   6.2066143e-02   0.0000000e+00
   8.2702245e+00   5.0100000e+02   6.2964021e-02   0.0000000e+00
   8.2802248e+00   5.0000000e+02   6.3836590e-02   0.0000000e+00
   8.2902250e+00   5.0000000e+02   6.4682127e-02   0.0000000e+00
   8.3002253e+00   5.0000000e+02   6.5498874e-02   0.0000000e+00
   8.3102256e+00   5.0000000e+02   6.6285045e-02   0.0000000e+00
   8.3202258e+00   5.0000000e+02   6.7038819e-02   0.0000000e+00
   8.3302261e+00   5.0000000e+02   6.7758347e-02   0.0000000e+00
   8.3402264e+00   5.0000000e+02   6.8441751e-02   0.0000000e+00
   8.3502267e+00   5.0100000e+02   6.9087121e-02   0.0000000e+00
   8.3602269e+00   5.0100000e+02   6.9692523e-02   0.0000000e+00
   8.3702272e+00   5.0300000e+02   7.0255995e-02   0.0000000e+00
   8.3802275e+00   5.0300000e+02   7.0775550e-02   0.0000000e+00
   8.3902277e+00   5.0300000e+02   7.1249176e-02   0.0000000e+00
   8.4002280e+00   5.0300000e+02   7.1674838e-02   0.0000000e+00
   8.4102283e+00   5.0300000e+02   7.2050481e-02   0.0000000e+00
   8.4202286e+00   5.0300000e+02   7.2374028e-02   0.0000000e+00
   8.4302288e+00   5.0200000e+02   7.2643383e-02   0.0000000e+00
   8.4402291e+00   5.0300000e+02   7.2856434e-02   0.0000000e+00
   8.4502294e+00   5.0200000e+02   7.3011052e-02   0.0000000e+00
   8.4602296e+00   5.0200000e+02   7.3105094e-02   0.0000000e+00
   8.4702299e+00   5.0200000e+02   7.3136405e-02   0.0000000e+00
   8.4802302e+00   5.0100000e+02   7.3102819e-02   0.0000000e+00
   8.4902305e+00   5.0100000e+02   7.3002161e-02   0.0000000e+00
   8.5002307e+00   5.0100000e+02   7.2832248e-02   0.0000000e+00
   8.5102310e+00   5.0000000e+02   7.2590893e-02   0.0000000e+00
   8.5202313e+00   5.0000000e+02   7.2275907e-02   0.0000000e+00
   8.5302315e+00   4.9900000e+02   7.1885098e-02   0.0000000e+00
   8.5402318e+00   4.9900000e+02   7.1416276e-02   0.0000000e+00
   8.5502321e+00   4.9900000e+02   7.0867256e-02   0.0000000e+00
   8.5602324e+00   4.9900000e+02   7.0235856e-02   0.0000000e+00
   8.5702326e+00   4.9900000e+02   6.9519904e-02   0.0000000e+00
   8.5802329e+00   4.9800000e+02   6.8717238e-02   0.0000000e+00
   8.5902332e+00   4.9800000e+02   6.7825709e-02   0.0000000e+00
   8.6002334e+00   4.9800000e+02   6.6843185e-02   0.0000000e+00
   8.6102337e+00   4.9800000e+02   6.5767549e-02   0.0000000e+00
   8.6202340e+00   4.9800000e+02   6.4596709e-02   0.0000000e+00
   8.6302343e+00   4.9700000e+02   6.3328592e-02   0.0000000e+00
   8.6402345e+00   4.9800000e+02   6.1961156e-02   0.0000000e+00
   8.6502348e+00   4.9800000e+02   6.0492386e-02   0.0000000e+00
   8.6602351e+00   4.9800000e+02   5.8920299e-02   0.0000000e+00
   8.6702353e+00   4.9800000e+02   5.7242948e-02   0.0000000e+00
   8.6802356e+00   4.9800000e+02   5.5458423e-02   0.0000000e+00
   8.6902359e+00   4.9800000e+02   5.3564858e-02   0.0000000e+00
   8.7002362e+00   4.9800000e+02   5.1560429e-02   0.0000000e+00
   8.7102364e+00   4.9800000e+02   4.9443359e-02   0.0000000e+00
   8.7202367e+00   4.9800000e+02   4.7211926e-02   0.0000000e+00
   8.7302370e+00   4.9900000e+02   4.4864457e-02   0.0000000e+00
   8.7402372e+00   4.9900000e+02   4.2399340e-02   0.0000000e+00
   8.7502375e+00   4.9900000e+02   3.9815022e-02   0.0000000e+00
   8.7602378e+00   5.0000000e+02   3.7110015e-02   0.0000000e+00
   8.7702381e+00   5.0100000e+02   3.4282899e-02   0.0000000e+00
   8.7802383e+00   5.0200000e+02   3.1332324e-02   0.0000000e+00
   8.7902386e+00   5.0300000e+02   2.8257016e-02   0.0000000e+00
   8.8002389e+00   5.0300000e+02   2.5055778e-02   0.0000000e+00
   8.8102391e+00   5.0400000e+02   2.1727496e-02   0.0000000e+00
   8.8202394e+00   5.0400000e+02   1.8271139e-02   0.0000000e+00
   8.8302397e+00   5.0500000e+02   1.4685767e-02   0.0000000e+00
   8.8402400e+00   5.0400000e+02   1.0970532e-02   0.0000000e+00
   8.8502402e+00   5.0400000e+02   7.1246816e-03   0.0000000e+00
   8.8602405e+00   5.0400000e+02   3.1475641e-03   0.0000000e+00
   8.8702408e+00   5.0500000e+02  -9.6136961e-04   0.0000000e+00
   8.8802410e+00   5.0500000e+02  -5.2025613e-03   0.0000000e+00
   8.8902413e+00   5.0500000e+02  -9.5763422e-03   0.0000000e+00
   8.9002416e+00   5.0600000e+02  -1.4082929e-02   0.0000000e+00
   8.9102419e+00   5.0500000e+02  -1.8722420e-02   0.0000000e+00
   8.9202421e+00   5.0600000e+02  -2.3494793e-02   0.0000000e+00
   8.9302424e+00   5.0700000e+02  -2.8399901e-02   0.0000000e+00
   8.9402427e+00   5.0700000e+02  -3.3437465e-02   0.0000000e+00
   8.9502429e+00   5.0700000e+02  -3.8607078e-02   0.0000000e+00
   8.9602432e+00   5.0700000e+02  -4.3908194e-02   0.0000000e+00
   8.9702435e+00   5.0800000e+02  -4.9340129e-02   0.0000000e+00
   8.9802438e+00   5.0900000e+02  -5.4902057e-02   0.0000000e+00
   8.9902440e+00   5.0900000e+02  -6.0593004e-02   0.0000000e+00
   9.0002443e+00   5.0900000e+02  -6.6411848e-02   0.0000000e+00
   9.0102446e+00   5.1000000e+02  -7.2357314e-02   0.0000000e+00
   9.0202448e+00   5.1000000e+02  -7.8427971e-02   0.0000000e+00
   9.0302451e+00   5.1000000e+02  -8.4622227e-02   0.0000000e+00
   9.0402454e+00   5.1100000e+02  -9.0938331e-02   0.0000000e+00
   9.0502457e+00   5.1100000e+02  -9.7374363e-02   0.0000000e+00
   9.0602459e+00   5.1100000e+02  -1.0392824e-01   0.0000000e+00
   9.0702462e+00   5.1200000e+02  -1.1059770e-01   0.0000000e+00
   9.0802465e+00   5.1200000e+02  -1.1738031e-01   0.0000000e+00
   9.0902467e+00   5.1200000e+02  -1.2427347e-01   0.0000000e+00
   9.1002470e+00   5.1300000e+02  -1.3127439e-01   0.0000000e+00
   9.1102473e+00   5.1300000e+02  -1.3838009e-01   0.0000000e+00
   9.1202476e+00   5.1300000e+02  -1.4558744e-01   0.0000000e+00
   9.1302478e+00   5.1300000e+02  -1.5289308e-01   0.0000000e+00
   9.1402481e+00   5.1300000e+02  -1.6029349e-01   0.0000000e+00
   9.1502484e+00   5.1200000e+02  -1.6778495e-01   0.0000000e+00
   9.1602486e+00   5.1200000e+02  -1.7536355e-01   0.0000000e+00
   9.1702489e+00   5.1100000e+02  -1.8302519e-01   0.0000000e+00
   9.1802492e+00   5.1100000e+02  -1.9076556e-01   0.0000000e+00
   9.1902495e+00   5.1000000e+02  -1.9858018e-01   0.0000000e+00
   9.2002497e+00   5.0900000e+02  -2.0646434e-01   0.0000000e+00
   9.2102500e+00   5.0900000e+02  -2.1441315e-01   0.0000000e+00
   9.2202503e+00   5.0800000e+02  -2.2242152e-01   0.0000000e+00
   9.2302505e+00   5.0800000e+02  -2.3048415e-01   0.0000000e+00
   9.2402508e+00   5.0900000e+02  -2.3859555e-01   0.0000000e+00
   9.2502511e+00   5.0800000e+02  -2.4675000e-01   0.0000000e+00
   9.2602514e+00   5.0800000e+02  -2.5494162e-01   0.0000000e+00
   9.2702516e+00   5.0800000e+02  -2.6316430e-01   0.0000000e+00
   9.2802519e+00   5.0800000e+02  -2.7141173e-01   0.0000000e+00
   9.2902522e+00   5.0800000e+02  -2.7967741e-01   0.0000000e+00
   9.3002524e+00   5.0800000e+02  -2.8795462e-01   0.0000000e+00
   9.3102527e+00   5.0900000e+02  -2.9623645e-01   0.0000000e+00
   9.3202530e+00   5.0900000e+02  -3.0451580e-01   0.0000000e+00
   9.3302533e+00   5.1000000e+02  -3.1278536e-01   0.0000000e+00
   9.3402535e+00   5.1100000e+02  -3.2103763e-01   0.0000000e+00
   9.3502538e+00   5.1100000e+02  -3.2926490e-01   0.0000000e+00
   9.3602541e+00   5.1200000e+02  -3.3745929e-01   0.0000000e+00
   9.3702544e+00   5.1200000e+02  -3.4561270e-01   0.0000000e+00
   9.3802546e+00   5.1300000e+02  -3.5371688e-01   0.0000000e+00
   9.3902549e+00   5.1400000e+02  -3.6176336e-01   0.0000000e+00
   9.4002552e+00   5.1500000e+02  -3.6974350e-01   0.0000000e+00
   9.4102554e+00   5.1600000e+02  -3.7764849e-01   0.0000000e+00
   9.4202557e+00   5.1700000e+02  -3.8546932e-01   0.0000000e+00
   9.4302560e+00   5.1800000e+02  -3.9319683e-01   0.0000000e+00
   9.4402563e+00   5.1800000e+02  -4.0082168e-01   0.0000000e+00
   9.4502565e+00   5.1900000e+02  -4.0833436e-01   0.0000000e+00
   9.4602568e+00   5.1900000e+02  -4.1572523e-01   0.0000000e+00
   9.4702571e+00   5.1900000e+02  -4.2298445e-01   0.0000000e+00
   9.4802573e+00   5.1900000e+02  -4.3010207e-01   0.0000000e+00
   9.4902576e+00   5.1900000e+02  -4.3706796e-01   0.0000000e+00
   9.5002579e+00   5.1900000e+02  -4.4387189e-01   0.0000000e+00
   9.5102582e+00   5.1900000e+02  -4.5050346e-01   0.0000000e+00
   9.5202584e+00   5.1900000e+02  -4.5695216e-01   0.0000000e+00
   9.5302587e+00   5.1800000e+02  -4.6320737e-01   0.0000000e+00
   9.5402590e+00   5.1900000e+02  -4.6925832e-01   0.0000000e+00
   9.5502592e+00   5.1900000e+02  -4.7509418e-01   0.0000000e+00
   9.5602595e+00   5.1900000e+02  -4.8070399e-01   0.0000000e+00
   9.5702598e+00   5.1900000e+02  -4.8607670e-01   0.0000000e+00
   9.5802601e+00   5.1900000e+02  -4.9120119e-01   0.0000000e+00
   9.5902603e+00   5.2000000e+02  -4.9606624e-01   0.0000000e+00
   9.6002606e+00   5.1900000e+02  -5.0066059e-01   0.0000000e+00
   9.6102609e+00   5.1900000e+02  -5.0497290e-01   0.0000000e+00
   9.6202611e+00   5.2000000e+02  -5.0899179e-01   0.0000000e+00
   9.6302614e+00   5.2000000e+02  -5.1270584e-01   0.0000000e+00
   9.6402617e+00   5.2000000e+02  -5.1610360e-01   0.0000000e+00
   9.6502620e+00   5.2100000e+02  -5.1917358e-01   0.0000000e+00
   9.6602622e+00   5.2100000e+02  -5.2190431e-01   0.0000000e+00
   9.6702625e+00   5.2200000e+02  -5.2428428e-01   0.0000000e+00
   9.6802628e+00   5.2200000e+02  -5.2630204e-01   0.0000000e+00
   9.6902630e+00   5.2300000e+02  -5.2794610e-01   0.0000000e+00
   9.7002633e+00   5.2300000e+02  -5.2920506e-01   0.0000000e+00
   9.7102636e+00   5.2400000e+02  -5.3006752e-01   0.0000000e+00
   9.7202639e+00   5.2400000e+02  -5.3052216e-01   0.0000000e+00
   9.7302641e+00   5.2500000e+02  -5.3055772e-01   0.0000000e+00
   9.7402644e+00   5.2600000e+02  -5.3016299e-01   0.0000000e+00
   9.7502647e+00   5.2700000e+02  -5.2932690e-01   0.0000000e+00
   9.7602649e+00   5.2700000e+02  -5.2803845e-01   0.0000000e+00
   9.7702652e+00   5.2800000e+02  -5.2628677e-01   0.0000000e+00
   9.7802655e+00   5.2900000e+02  -5.2406110e-01   0.0000000e+00
   9.7902658e+00   5.3000000e+02  -5.2135083e-01   0.0000000e+00
   9.8002660e+00   5.3100000e+02  -5.1814553e-01   0.0000000e+00
   9.8102663e+00   5.3200000e+02  -5.1443489e-01   0.0000000e+00
   9.8202666e+00   5.3300000e+02  -5.1020883e-01   0.0000000e+00
   9.8302668e+00   5.3400000e+02  -5.0545744e-01   0.0000000e+00
   9.8402671e+00   5.3500000e+02  -5.0017101e-01   0.0000000e+00
   9.8502674e+00   5.3500000e+02  -4.9434008e-01   0.0000000e+00
   9.8602677e+00   5.3600000e+02  -4.8795540e-01   0.0000000e+00
   9.8702679e+00   5.3600000e+02  -4.8100801e-01   0.0000000e+00
   9.8802682e+00   5.3600000e+02  -4.7348917e-01   0.0000000e+00
   9.8902685e+00   5.3700000e+02  -4.6539045e-01   0.0000000e+00
   9.9002687e+00   5.3800000e+02  -4.5670371e-01   0.0000000e+00
   9.9102690e+00   5.3800000e+02  -4.4742112e-01   0.0000000e+00
   9.9202693e+00   5.3900000e+02  -4.3753517e-01   0.0000000e+00
   9.9302696e+00   5.3900000e+02  -4.2703869e-01   0.0000000e+00
   9.9402698e+00   5.3900000e+02  -4.1592487e-01   0.0000000e+00
   9.9502701e+00   5.3900000e+02  -4.0418727e-01   0.0000000e+00
   9.9602704e+00   5.3900000e+02  -3.9181981e-01   0.0000000e+00
   9.9702706e+00   5.3800000e+02  -3.7881685e-01   0.0000000e+00
   9.9802709e+00   5.3900000e+02  -3.6517313e-01   0.0000000e+00
   9.9902712e+00   5.3900000e+02  -3.5088382e-01   0.0000000e+00
   1.0000271e+01   5.3900000e+02  -3.3594454e-01   0.0000000e+00
   1.0010272e+01   5.4000000e+02  -3.2035138e-01   0.0000000e+00
   1.0020272e+01   5.4000000e+02  -3.0410087e-01   0.0000000e+00
   1.0030272e+01   5.4100000e+02  -2.8719005e-01   0.0000000e+00
   1.0040273e+01   5.4300000e+02  -2.6961646e-01   0.0000000e+00
   1.0050273e+01   5.4400000e+02  -2.5137813e-01   0.0000000e+00
   1.0060273e+01   5.4500000e+02  -2.3247365e-01   0.0000000e+00
   1.0070273e+01   5.4700000e+02  -2.1290212e-01   0.0000000e+00
   1.0080274e+01   5.4900000e+02  -1.9266321e-01   0.0000000e+00
   1.0090274e+01   5.5000000e+02  -1.7175717e-01   0.0000000e+00
   1.0100274e+01   5.5200000e+02  -1.5018480e-01   0.0000000e+00
   1.0110274e+01   5.5300000e+02  -1.2794753e-01   0.0000000e+00
   1.0120275e+01   5.5500000e+02  -1.0504737e-01   0.0000000e+00
   1.0130275e+01   5.5700000e+02  -8.1486967e-02   0.0000000e+00
   1.0140275e+01   5.5900000e+02  -5.7269578e-02   0.0000000e+00
   1.0150276e+01   5.6000000e+02  -3.2399120e-02   0.0000000e+00
   1.0160276e+01   5.6100000e+02  -6.8801578e-03   0.0000000e+00
   1.0170276e+01   5.6200000e+02   1.9282079e-02   0.0000000e+00
   1.0180276e+01   5.6300000e+02   4.6081684e-02   0.0000000e+00
   1.0190277e+01   5.6300000e+02   7.3512066e-02   0.0000000e+00
   1.0200277e+01   5.6400000e+02   1.0156594e-01   0.0000000e+00
   1.0210277e+01   5.6500000e+02   1.3023531e-01   0.0000000e+00
   1.0220277e+01   5.6600000e+02   1.5951148e-01   0.0000000e+00
   1.0230278e+01   5.6600000e+02   1.8938501e-01   0.0000000e+00
   1.0240278e+01   5.6700000e+02   2.1984575e-01   0.0000000e+00
   1.0250278e+01   5.6700000e+02   2.5088280e-01   0.0000000e+00
   1.0260279e+01   5.6700000e+02   2.8248453e-01   0.0000000e+00
   1.0270279e+01   5.6700000e+02   3.1463854e-01   0.0000000e+00
   1.0280279e+01   5.6600000e+02   3.4733169e-01   0.0000000e+00
   1.0290279e+01   5.6600000e+02   3.8055006e-01   0.0000000e+00
   1.0300280e+01   5.6600000e+02   4.1427897e-01   0.0000000e+00
   1.0310280e+01   5.6500000e+02   4.4850299e-01   0.0000000e+00
   1.0320280e+01   5.6400000e+02   4.8320588e-01   0.0000000e+00
   1.0330280e+01   5.6300000e+02   5.1837066e-01   0.0000000e+00
   1.0340281e+01   5.6300000e+02   5.5397953e-01   0.0000000e+00
   1.0350281e+01   5.6200000e+02   5.9001394e-01   0.0000000e+00
   1.0360281e+01   5.6000000e+02   6.2645455e-01   0.0000000e+00
   1.0370281e+01   5.5900000e+02   6.6328124e-01   0.0000000e+00
   1.0380282e+01   5.5800000e+02   7.0047310e-01   0.0000000e+00
   1.0390282e+01   5.5600000e+02   7.3800844e-01   0.0000000e+00
   1.0400282e+01   5.5400000e+02   7.7586482e-01   0.0000000e+00
   1.0410283e+01   5.5300000e+02   8.1401898e-01   0.0000000e+00
   1.0420283e+01   5.5100000e+02   8.5244693e-01   0.0000000e+00
   1.0430283e+01   5.5100000e+02   8.9112389e-01   0.0000000e+00
   1.0440283e+01   5.5000000e+02   9.3002432e-01   0.0000000e+00
   1.0450284e+01   5.4900000e+02   9.6912193e-01   0.0000000e+00
   1.0460284e+01   5.4800000e+02   1.0083897e+00   0.0000000e+00
   1.0470284e+01   5.4800000e+02   1.0477998e+00   0.0000000e+00
   1.0480284e+01   5.4800000e+02   1.0873238e+00   0.0000000e+00
   1.0490285e+01   5.4900000e+02   1.1269324e+00   0.0000000e+00
   1.0500285e+01   5.5000000e+02   1.1665957e+00   0.0000000e+00
   1.0510285e+01   5.5000000e+02   1.2062830e+00   0.0000000e+00
   1.0520286e+01   5.5100000e+02   1.2459630e+00   0.0000000e+00
   1.0530286e+01   5.5100000e+02   1.2856036e+00   0.0000000e+00
   1.0540286e+01   5.5200000e+02   1.3251723e+00   0.0000000e+00
   1.0550286e+01   5.5300000e+02   1.3646356e+00   0.0000000e+00
   1.0560287e+01   5.5400000e+02   1.4039596e+00   0.0000000e+00
   1.0570287e+01   5.5500000e+02   1.4431098e+00   0.0000000e+00
   1.0580287e+01   5.5600000e+02   1.4820509e+00   0.0000000e+00
   1.0590287e+01   5.5600000e+02   1.5207472e+00   0.0000000e+00
   1.0600288e+01   5.5600000e+02   1.5591625e+00   0.0000000e+00
   1.0610288e+01   5.5700000e+02   1.5972597e+00   0.0000000e+00
   1.0620288e+01   5.5700000e+02   1.6350017e+00   0.0000000e+00
   1.0630289e+01   5.5800000e+02   1.6723504e+00   0.0000000e+00
   1.0640289e+01   5.5700000e+02   1.7092675e+00   0.0000000e+00
   1.0650289e+01   5.5700000e+02   1.7457143e+00   0.0000000e+00
   1.0660289e+01   5.5700000e+02   1.7816516e+00   0.0000000e+00
   1.0670290e+01   5.5700000e+02   1.8170395e+00   0.0000000e+00
   1.0680290e+01   5.5600000e+02   1.8518383e+00   0.0000000e+00
   1.0690290e+01   5.5600000e+02   1.8860075e+00   0.0000000e+00
   1.0700290e+01   5.5600000e+02   1.9195064e+00   0.0000000e+00
   1.0710291e+01   5.5500000e+02   1.9522940e+00   0.0000000e+00
   1.0720291e+01   5.5500000e+02   1.9843292e+00   0.0000000e+00
   1.0730291e+01   5.5400000e+02   2.0155705e+00   0.0000000e+00
   1.0740292e+01   5.5400000e+02   2.0459762e+00   0.0000000e+00
   1.0750292e+01   5.5300000e+02   2.0755045e+00   0.0000000e+00
   1.0760292e+01   5.5300000e+02   2.1041134e+00   0.0000000e+00
   1.0770292e+01   5.5300000e+02   2.1317608e+00   0.0000000e+00
   1.0780293e+01   5.5200000e+02   2.1584047e+00   0.0000000e+00
   1.0790293e+01   5.5300000e+02   2.1840028e+00   0.0000000e+00
   1.0800293e+01   5.5200000e+02   2.2085130e+00   0.0000000e+00
   1.0810293e+01   5.5200000e+02   2.2318932e+00   0.0000000e+00
   1.0820294e+01   5.5200000e+02   2.2541013e+00   0.0000000e+00
   1.0830294e+01   5.5300000e+02   2.2750954e+00   0.0000000e+00
   1.0840294e+01   5.5300000e+02   2.2948337e+00   0.0000000e+00
   1.0850295e+01   5.5300000e+02   2.3132747e+00   0.0000000e+00
   1.0860295e+01   5.5300000e+02   2.3303770e+00   0.0000000e+00
   1.0870295e+01   5.5400000e+02   2.3460995e+00   0.0000000e+00
   1.0880295e+01   5.5400000e+02   2.3604015e+00   0.0000000e+00
   1.0890296e+01   5.5400000e+02   2.3732426e+00   0.0000000e+00
   1.0900296e+01   5.5400000e+02   2.3845827e+00   0.0000000e+00
   1.0910296e+01   5.5500000e+02   2.3943824e+00   0.0000000e+00
   1.0920296e+01   5.5600000e+02   2.4026024e+00   0.0000000e+00
   1.0930297e+01   5.5500000e+02   2.4092043e+00   0.0000000e+00
   1.0940297e+01   5.5600000e+02   2.4141501e+00   0.0000000e+00
   1.0950297e+01   5.5700000e+02   2.4174024e+00   0.0000000e+00
   1.0960298e+01   5.5700000e+02   2.4189244e+00   0.0000000e+00
   1.0970298e+01   5.5800000e+02   2.4186802e+00   0.0000000e+00
   1.0980298e+01   5.5900000e+02   2.4166344e+00   0.0000000e+00
   1.0990298e+01   5.5900000e+02   2.4127526e+00   0.0000000e+00
   1.1000299e+01   5.6000000e+02   2.4070011e+00   0.0000000e+00
   1.1010299e+01   5.6000000e+02   2.3993471e+00   0.0000000e+00
   1.1020299e+01   5.6100000e+02   2.3897587e+00   0.0000000e+00
   1.1030299e+01   5.6100000e+02   2.3782052e+00   0.0000000e+00
   1.1040300e+01   5.6300000e+02   2.3646565e+00   0.0000000e+00
   1.1050300e+01   5.6300000e+02   2.3490838e+00   0.0000000e+00
   1.1060300e+01   5.6300000e+02   2.3314595e+00   0.0000000e+00
   1.1070300e+01   5.6400000e+02   2.3117569e+00   0.0000000e+00
   1.1080301e+01   5.6500000e+02   2.2899506e+00   0.0000000e+00
   1.1090301e+01   5.6500000e+02   2.2660166e+00   0.0000000e+00
   1.1100301e+01   5.6600000e+02   2.2399317e+00   0.0000000e+00
   1.1110302e+01   5.6700000e+02   2.2116746e+00   0.0000000e+00
   1.1120302e+01   5.6700000e+02   2.1812250e+00   0.0000000e+00
   1.1130302e+01   5.6700000e+02   2.1485641e+00   0.0000000e+00
   1.1140302e+01   5.6800000e+02   2.1136745e+00   0.0000000e+00
   1.1150303e+01   5.6800000e+02   2.0765403e+00   0.0000000e+00
   1.1160303e+01   5.6800000e+02   2.0371473e+00   0.0000000e+00
   1.1170303e+01   5.6900000e+02   1.9954825e+00   0.0000000e+00
   1.1180303e+01   5.6900000e+02   1.9515348e+00   0.0000000e+00
   1.1190304e+01   5.6900000e+02   1.9052946e+00   0.0000000e+00
   1.1200304e+01   5.7000000e+02   1.8567542e+00   0.0000000e+00
   1.1210304e+01   5.7000000e+02   1.8059074e+00   0.0000000e+00
   1.1220305e+01   5.7000000e+02   1.7527497e+00   0.0000000e+00
   1.1230305e+01   5.7100000e+02   1.6972785e+00   0.0000000e+00
   1.1240305e+01   5.7100000e+02   1.6394932e+00   0.0000000e+00
   1.1250305e+01   5.7100000e+02   1.5793947e+00   0.0000000e+00
   1.1260306e+01   5.7100000e+02   1.5169861e+00   0.0000000e+00
   1.1270306e+01   5.7100000e+02   1.4522721e+00   0.0000000e+00
   1.1280306e+01   5.7200000e+02   1.3852597e+00   0.0000000e+00
   1.1290306e+01   5.7200000e+02   1.3159577e+00   0.0000000e+00
   1.1300307e+01   5.7200000e+02   1.2443768e+00   0.0000000e+00
   1.1310307e+01   5.7200000e+02   1.1705298e+00   0.0000000e+00
   1.1320307e+01   5.7200000e+02   1.0944318e+00   0.0000000e+00
   1.1330308e+01   5.7200000e+02   1.0160996e+00   0.0000000e+00
   1.1340308e+01   5.7200000e+02   9.3555230e-01   0.0000000e+00
   1.1350308e+01   5.7200000e+02   8.5281110e-01   0.0000000e+00
   1.1360308e+01   5.7200000e+02   7.6789931e-01   0.0000000e+00
   1.1370309e+01   5.7100000e+02   6.8084239e-01   0.0000000e+00
   1.1380309e+01   5.7100000e+02   5.9166800e-01   0.0000000e+00
   1.1390309e+01   5.7100000e+02   5.0040595e-01   0.0000000e+00
   1.1400309e+01   5.7000000e+02   4.0708826e-01   0.0000000e+00
   1.1410310e+01   5.7000000e+02   3.1174915e-01   0.0000000e+00
   1.1420310e+01   5.7000000e+02   2.1442506e-01   0.0000000e+00
   1.1430310e+01   5.6900000e+02   1.1515465e-01   0.0000000e+00
   1.1440311e+01   5.6900000e+02   1.3978781e-02   0.0000000e+00
   1.1450311e+01   5.6800000e+02  -8.9059425e-02   0.0000000e+00
   1.1460311e+01   5.6800000e+02  -1.9391464e-01   0.0000000e+00
   1.1470311e+01   5.6700000e+02  -3.0053929e-01   0.0000000e+00
   1.1480312e+01   5.6700000e+02  -4.0888361e-01   0.0000000e+00
   1.1490312e+01   5.6600000e+02  -5.1889557e-01   0.0000000e+00
   1.1500312e+01   5.6600000e+02  -6.3052097e-01   0.0000000e+00
   1.1510312e+01   5.6500000e+02  -7.4370337e-01   0.0000000e+00
   1.1520313e+01   5.6400000e+02  -8.5838417e-01   0.0000000e+00
   1.1530313e+01   5.6400000e+02  -9.7450256e-01   0.0000000e+00
   1.1540313e+01   5.6300000e+02  -1.0919956e+00   0.0000000e+00
   1.1550314e+01   5.6300000e+02  -1.2107982e+00   0.0000000e+00
   1.1560314e+01   5.6200000e+02  -1.3308431e+00   0.0000000e+00
   1.1570314e+01   5.6100000e+02  -1.4520609e+00   0.0000000e+00
   1.1580314e+01   5.6100000e+02  -1.5743803e+00   0.0000000e+00
   1.1590315e+01   5.6000000e+02  -1.6977278e+00   0.0000000e+00
   1.1600315e+01   5.5900000e+02  -1.8220279e+00   0.0000000e+00
   1.1610315e+01   5.5800000e+02  -1.9472030e+00   0.0000000e+00
   1.1620315e+01   5.5700000e+02  -2.0731739e+00   0.0000000e+00
   1.1630316e+01   5.5600000e+02  -2.1998589e+00   0.0000000e+00
   1.1640316e+01   5.5600000e+02  -2.3271750e+00   0.0000000e+00
   1.1650316e+01   5.5500000e+02  -2.4550369e+00   0.0000000e+00
   1.1660317e+01   5.5400000e+02  -2.5833578e+00   0.0000000e+00
   1.1670317e+01   5.5300000e+02  -2.7120489e+00   0.0000000e+00
   1.1680317e+01   5.5200000e+02  -2.8410198e+00   0.0000000e+00
   1.1690317e+01   5.5100000e+02  -2.9701785e+00   0.0000000e+00
   1.1700318e+01   5.5000000e+02  -3.0994312e+00   0.0000000e+00
   1.1710318e+01   5.4900000e+02  -3.2286828e+00   0.0000000e+00
   1.1720318e+01   5.4800000e+02  -3.3578363e+00   0.0000000e+00
   1.1730318e+01   5.4700000e+02  -3.4867937e+00   0.0000000e+00
   1.1740319e+01   5.4600000e+02  -3.6154552e+00   0.0000000e+00
   1.1750319e+01   5.4400000e+02  -3.7437199e+00   0.0000000e+00
   1.1760319e+01   5.4400000e+02  -3.8714856e+00   0.0000000e+00
   1.1770319e+01   5.4300000e+02  -3.9986488e+00   0.0000000e+00
   1.1780320e+01   5.4100000e+02  -4.1251051e+00   0.0000000e+00
   1.1790320e+01   5.4000000e+02  -4.2507487e+00   0.0000000e+00
   1.1800320e+01   5.3900000e+02  -4.3754731e+00   0.0000000e+00
   1.1810321e+01   5.3800000e+02  -4.4991707e+00   0.0000000e+00
   1.1820321e+01   5.3700000e+02  -4.6217332e+00   0.0000000e+00
   1.1830321e+01   5.3600000e+02  -4.7430513e+00   0.0000000e+00
   1.1840321e+01   5.3500000e+02  -4.8630153e+00   0.0000000e+00
   1.1850322e+01   5.3400000e+02  -4.9815147e+00   0.0000000e+00
   1.1860322e+01   5.3400000e+02  -5.0984385e+00   0.0000000e+00
   1.1870322e+01   5.3200000e+02  -5.2136753e+00   0.0000000e+00
   1.1880322e+01   5.3100000e+02  -5.3271133e+00   0.0000000e+00
   1.1890323e+01   5.3100000e+02  -5.4386405e+00   0.0000000e+00
   1.1900323e+01   5.3000000e+02  -5.5481448e+00   0.0000000e+00
   1.1910323e+01   5.2900000e+02  -5.6555137e+00   0.0000000e+00
   1.1920324e+01   5.2800000e+02  -5.7606350e+00   0.0000000e+00
   1.1930324e+01   5.2700000e+02  -5.8633965e+00   0.0000000e+00
   1.1940324e+01   5.2600000e+02  -5.9636861e+00   0.0000000e+00
   1.1950324e+01   5.2600000e+02  -6.0613923e+00   0.0000000e+00
   1.1960325e+01   5.2500000e+02  -6.1564035e+00   0.0000000e+00
   1.1970325e+01   5.2400000e+02  -6.2486090e+00   0.0000000e+00
   1.1980325e+01   5.2400000e+02  -6.3378984e+00   0.0000000e+00
   1.1990325e+01   5.2300000e+02  -6.4241622e+00   0.0000000e+00
   1.2000326e+01   5.2200000e+02  -6.5072915e+00   0.0000000e+00
   1.2010326e+01   5.2200000e+02  -6.5871784e+00   0.0000000e+00
   1.2020326e+01   5.2100000e+02  -6.6637160e+00   0.0000000e+00
   1.2030327e+01   5.2000000e+02  -6.7367982e+00   0.0000000e+00
   1.2040327e+01   5.2000000e+02  -6.8063205e+00   0.0000000e+00
   1.2050327e+01   5.2000000e+02  -6.8721794e+00   0.0000000e+00
   1.2060327e+01   5.1900000e+02  -6.9342728e+00   0.0000000e+00
   1.2070328e+01   5.1900000e+02  -6.9925003e+00   0.0000000e+00
   1.2080328e+01   5.1900000e+02  -7.0467630e+00   0.0000000e+00
   1.2090328e+01   5.1900000e+02  -7.0969635e+00   0.0000000e+00
   1.2100328e+01   5.1900000e+02  -7.1430066e+00   0.0000000e+00
   1.2110329e+01   5.1900000e+02  -7.1847985e+00   0.0000000e+00
   1.2120329e+01   5.1900000e+02  -7.2222480e+00   0.0000000e+00
   1.2130329e+01   5.1900000e+02  -7.2552654e+00   0.0000000e+00
   1.2140330e+01   5.1800000e+02  -7.2837638e+00   0.0000000e+00
   1.2150330e+01   5.1900000e+02  -7.3076581e+00   0.0000000e+00
   1.2160330e+01   5.1900000e+02  -7.3268661e+00   0.0000000e+00
   1.2170330e+01   5.1900000e+02  -7.3413077e+00   0.0000000e+00
   1.2180331e+01   5.1900000e+02  -7.3509056e+00   0.0000000e+00
   1.2190331e+01   5.1900000e+02  -7.3555852e+00   0.0000000e+00
   1.2200331e+01   5.2000000e+02  -7.3552748e+00   0.0000000e+00
   1.2210331e+01   5.2000000e+02  -7.3499055e+00   0.0000000e+00
   1.2220332e+01   5.2100000e+02  -7.3394114e+00   0.0000000e+00
   1.2230332e+01   5.2100000e+02  -7.3237298e+00   0.0000000e+00
   1.2240332e+01   5.2200000e+02  -7.3028010e+00   0.0000000e+00
   1.2250333e+01   5.2200000e+02  -7.2765688e+00   0.0000000e+00
   1.2260333e+01   5.2200000e+02  -7.2449802e+00   0.0000000e+00
   1.2270333e+01   5.2200000e+02  -7.2079857e+00   0.0000000e+00
   1.2280333e+01   5.2100000e+02  -7.1655394e+00   0.0000000e+00
   1.2290334e+01   5.2200000e+02  -7.1175990e+00   0.0000000e+00
   1.2300334e+01   5.2100000e+02  -7.0641258e+00   0.0000000e+00
   1.2310334e+01   5.2100000e+02  -7.0050850e+00   0.0000000e+00
   1.2320334e+01   5.2100000e+02  -6.9404457e+00   0.0000000e+00
   1.2330335e+01   5.2100000e+02  -6.8701808e+00   0.0000000e+00
   1.2340335e+01   5.2100000e+02  -6.7942672e+00   0.0000000e+00
   1.2350335e+01   5.2100000e+02  -6.7126860e+00   0.0000000e+00
   1.2360336e+01   5.2100000e+02  -6.6254223e+00   0.0000000e+00
   1.2370336e+01   5.2100000e+02  -6.5324655e+00   0.0000000e+00
   1.2380336e+01   5.2200000e+02  -6.4338094e+00   0.0000000e+00
   1.2390336e+01   5.2200000e+02  -6.3294517e+00   0.0000000e+00
   1.2400337e+01   5.2300000e+02  -6.2193949e+00   0.0000000e+00
   1.2410337e+01   5.2200000e+02  -6.1036457e+00   0.0000000e+00
   1.2420337e+01   5.2200000e+02  -5.9822153e+00   0.0000000e+00
   1.2430337e+01   5.2100000e+02  -5.8551196e+00   0.0000000e+00
   1.2440338e+01   5.2100000e+02  -5.7223788e+00   0.0000000e+00
   1.2450338e+01   5.2000000e+02  -5.5840178e+00   0.0000000e+00
   1.2460338e+01   5.1900000e+02  -5.4400663e+00   0.0000000e+00
   1.2470338e+01   5.1900000e+02  -5.2905584e+00   0.0000000e+00
   1.2480339e+01   5.1900000e+02  -5.1355331e+00   0.0000000e+00
   1.2490339e+01   5.1900000e+02  -4.9750340e+00   0.0000000e+00
   1.2500339e+01   5.1800000e+02  -4.8091095e+00   0.0000000e+00
   1.2510340e+01   5.1900000e+02  -4.6378127e+00   0.0000000e+00
   1.2520340e+01   5.1800000e+02  -4.4612016e+00   0.0000000e+00
   1.2530340e+01   5.1800000e+02  -4.2793387e+00   0.0000000e+00
   1.2540340e+01   5.1700000e+02  -4.0922916e+00   0.0000000e+00
   1.2550341e+01   5.1700000e+02  -3.9001326e+00   0.0000000e+00
   1.2560341e+01   5.1600000e+02  -3.7029385e+00   0.0000000e+00
   1.2570341e+01   5.1600000e+02  -3.5007913e+00   0.0000000e+00
   1.2580341e+01   5.1600000e+02  -3.2937774e+00   0.0000000e+00
   1.2590342e+01   5.1600000e+02  -3.0819882e+00   0.0000000e+00
   1.2600342e+01   5.1500000e+02  -2.8655195e+00   0.0000000e+00
   1.2610342e+01   5.1600000e+02  -2.6444723e+00   0.0000000e+00
   1.2620343e+01   5.1600000e+02  -2.4189516e+00   0.0000000e+00
   1.2630343e+01   5.1600000e+02  -2.1890677e+00   0.0000000e+00
   1.2640343e+01   5.1600000e+02  -1.9549350e+00   0.0000000e+00
   1.2650343e+01   5.1600000e+02  -1.7166728e+00   0.0000000e+00
   1.2660344e+01   5.1600000e+02  -1.4744045e+00   0.0000000e+00
   1.2670344e+01   5.1700000e+02  -1.2282584e+00   0.0000000e+00
   1.2680344e+01   5.1700000e+02  -9.7836684e-01   0.0000000e+00
   1.2690344e+01   5.1700000e+02  -7.2486673e-01   0.0000000e+00
   1.2700345e+01   5.1800000e+02  -4.6789913e-01   0.0000000e+00
   1.2710345e+01   5.1800000e+02  -2.0760935e-01   0.0000000e+00
   1.2720345e+01   5.1800000e+02   5.5853191e-02   0.0000000e+00
   1.2730346e+01   5.1800000e+02   3.2233501e-01   0.0000000e+00
   1.2740346e+01   5.1800000e+02   5.9167865e-01   0.0000000e+00
   1.2750346e+01   5.1900000e+02   8.6372278e-01   0.0000000e+00
   1.2760346e+01   5.1900000e+02   1.1383023e+00   0.0000000e+00
   1.2770347e+01   5.1900000e+02   1.4152483e+00   0.0000000e+00
   1.2780347e+01   5.1900000e+02   1.6943884e+00   0.0000000e+00
   1.2790347e+01   5.1800000e+02   1.9755467e+00   0.0000000e+00
   1.2800347e+01   5.1800000e+02   2.2585438e+00   0.0000000e+00
   1.2810348e+01   5.1800000e+02   2.5431972e+00   0.0000000e+00
   1.2820348e+01   5.1800000e+02   2.8293211e+00   0.0000000e+00
   1.2830348e+01   5.1800000e+02   3.1167266e+00   0.0000000e+00
   1.2840349e+01   5.1800000e+02   3.4052220e+00   0.0000000e+00
   1.2850349e+01   5.1700000e+02   3.6946129e+00   0.0000000e+00
   1.2860349e+01   5.1800000e+02   3.9847019e+00   0.0000000e+00
   1.2870349e+01   5.1700000e+02   4.2752894e+00   0.0000000e+00
   1.2880350e+01   5.1700000e+02   4.5661732e+00   0.0000000e+00
   1.2890350e+01   5.1600000e+02   4.8571490e+00   0.0000000e+00
   1.2900350e+01   5.1600000e+02   5.1480102e+00   0.0000000e+00
   1.2910350e+01   5.1500000e+02   5.4385485e+00   0.0000000e+00
   1.2920351e+01   5.1500000e+02   5.7285534e+00   0.0000000e+00
   1.2930351e+01   5.1400000e+02   6.0178131e+00   0.0000000e+00
   1.2940351e+01   5.1400000e+02   6.3061142e+00   0.0000000e+00
   1.2950352e+01   5.1300000e+02   6.5932418e+00   0.0000000e+00
   1.2960352e+01   5.1300000e+02   6.8789801e+00   0.0000000e+00
   1.2970352e+01   5.1300000e+02   7.1631120e+00   0.0000000e+00
   1.2980352e+01   5.1300000e+02   7.4454196e+00   0.0000000e+00
   1.2990353e+01   5.1200000e+02   7.7256846e+00   0.0000000e+00
   1.3000353e+01   5.1200000e+02   8.0036879e+00   0.0000000e+00
   1.3010353e+01   5.1100000e+02   8.2792100e+00   0.0000000e+00
   1.3020353e+01   5.1100000e+02   8.5520316e+00   0.0000000e+00
   1.3030354e+01   5.1000000e+02   8.8219331e+00   0.0000000e+00
   1.3040354e+01   5.1000000e+02   9.0886951e+00   0.0000000e+00
   1.3050354e+01   5.0900000e+02   9.3520989e+00   0.0000000e+00
   1.3060355e+01   5.0800000e+02   9.6119260e+00   0.0000000e+00
   1.3070355e+01   5.0800000e+02   9.8679587e+00   0.0000000e+00
   1.3080355e+01   5.0700000e+02   1.0119980e+01   0.0000000e+00
   1.3090355e+01   5.0600000e+02   1.0367776e+01   0.0000000e+00
   1.3100356e+01   5.0600000e+02   1.0611130e+01   0.0000000e+00
   1.3110356e+01   5.0600000e+02   1.0849830e+01   0.0000000e+00
   1.3120356e+01   5.0500000e+02   1.1083666e+01   0.0000000e+00
   1.3130356e+01   5.0500000e+02   1.1312428e+01   0.0000000e+00
   1.3140357e+01   5.0500000e+02   1.1535908e+01   0.0000000e+00
   1.3150357e+01   5.0500000e+02   1.1753901e+01   0.0000000e+00
   1.3160357e+01   5.0400000e+02   1.1966206e+01   0.0000000e+00
   1.3170358e+01   5.0500000e+02   1.2172622e+01   0.0000000e+00
   1.3180358e+01   5.0400000e+02   1.2372952e+01   0.0000000e+00
   1.3190358e+01   5.0500000e+02   1.2567001e+01   0.0000000e+00
   1.3200358e+01   5.0400000e+02   1.2754578e+01   0.0000000e+00
   1.3210359e+01   5.0500000e+02   1.2935497e+01   0.0000000e+00
   1.3220359e+01   5.0500000e+02   1.3109572e+01   0.0000000e+00
   1.3230359e+01   5.0400000e+02   1.3276623e+01   0.0000000e+00
   1.3240359e+01   5.0500000e+02   1.3436473e+01   0.0000000e+00
   1.3250360e+01   5.0500000e+02   1.3588950e+01   0.0000000e+00
   1.3260360e+01   5.0500000e+02   1.3733886e+01   0.0000000e+00
   1.3270360e+01   5.0500000e+02   1.3871116e+01   0.0000000e+00
   1.3280360e+01   5.0600000e+02   1.4000481e+01   0.0000000e+00
   1.3290361e+01   5.0700000e+02   1.4121826e+01   0.0000000e+00
   1.3300361e+01   5.0700000e+02   1.4235002e+01   0.0000000e+00
   1.3310361e+01   5.0800000e+02   1.4339864e+01   0.0000000e+00
   1.3320362e+01   5.0800000e+02   1.4436273e+01   0.0000000e+00
   1.3330362e+01   5.0900000e+02   1.4524094e+01   0.0000000e+00
   1.3340362e+01   5.0900000e+02   1.4603198e+01   0.0000000e+00
   1.3350362e+01   5.1000000e+02   1.4673464e+01   0.0000000e+00
   1.3360363e+01   5.1200000e+02   1.4734773e+01   0.0000000e+00
   1.3370363e+01   5.1300000e+02   1.4787015e+01   0.0000000e+00
   1.3380363e+01   5.1400000e+02   1.4830085e+01   0.0000000e+00
   1.3390363e+01   5.1500000e+02   1.4863884e+01   0.0000000e+00
   1.3400364e+01   5.1700000e+02   1.4888320e+01   0.0000000e+00
   1.3410364e+01   5.1800000e+02   1.4903305e+01   0.0000000e+00
   1.3420364e+01   5.1900000e+02   1.4908762e+01   1.0000000e+00
   1.3430365e+01   5.2000000e+02   1.4904618e+01   0.0000000e+00
   1.3440365e+01   5.2100000e+02   1.4890806e+01   0.0000000e+00
   1.3450365e+01   5.2200000e+02   1.4867269e+01   0.0000000e+00
   1.3460365e+01   5.2300000e+02   1.4833953e+01   0.0000000e+00
   1.3470366e+01   5.2400000e+02   1.4790814e+01   0.0000000e+00
   1.3480366e+01   5.2400000e+02   1.4737815e+01   0.0000000e+00
   1.3490366e+01   5.2500000e+02   1.4674925e+01   0.0000000e+00
   1.3500366e+01   5.2600000e+02   1.4602122e+01   0.0000000e+00
   1.3510367e+01   5.2600000e+02   1.4519390e+01   0.0000000e+00
   1.3520367e+01   5.2600000e+02   1.4426721e+01   0.0000000e+00
   1.3530367e+01   5.2600000e+02   1.4324115e+01   0.0000000e+00
   1.3540368e+01   5.2700000e+02   1.4211578e+01   0.0000000e+00
   1.3550368e+01   5.2700000e+02   1.4089126e+01   0.0000000e+00
   1.3560368e+01   5.2700000e+02   1.3956781e+01   0.0000000e+00
   1.3570368e+01   5.2800000e+02   1.3814574e+01   0.0000000e+00
   1.3580369e+01   5.2800000e+02   1.3662542e+01   0.0000000e+00
   1.3590369e+01   5.2900000e+02   1.3500732e+01   0.0000000e+00
   1.3600369e+01   5.3100000e+02   1.3329196e+01   0.0000000e+00
   1.3610369e+01   5.3100000e+02   1.3147996e+01   0.0000000e+00
   1.3620370e+01   5.3300000e+02   1.2957202e+01   0.0000000e+00
   1.3630370e+01   5.3500000e+02   1.2756891e+01   0.0000000e+00
   1.3640370e+01   5.3700000e+02   1.2547146e+01   0.0000000e+00
   1.3650371e+01   5.3900000e+02   1.2328061e+01   0.0000000e+00
   1.3660371e+01   5.4100000e+02   1.2099735e+01   0.0000000e+00
   1.3670371e+01   5.4400000e+02   1.1862278e+01   0.0000000e+00
   1.3680371e+01   5.4600000e+02   1.1615803e+01   0.0000000e+00
   1.3690372e+01   5.4900000e+02   1.1360435e+01   0.0000000e+00
   1.3700372e+01   5.5100000e+02   1.1096303e+01   0.0000000e+00
   1.3710372e+01   5.5400000e+02   1.0823547e+01   0.0000000e+00
   1.3720372e+01   5.5700000e+02   1.0542312e+01   0.0000000e+00
   1.3730373e+01   5.5900000e+02   1.0252750e+01   0.0000000e+00
   1.3740373e+01   5.6300000e+02   9.9550220e+00   0.0000000e+00
   1.3750373e+01   5.6500000e+02   9.6492953e+00   0.0000000e+00
   1.3760374e+01   5.6800000e+02   9.3357441e+00   0.0000000e+00
   1.3770374e+01   5.7100000e+02   9.0145499e+00   0.0000000e+00
   1.3780374e+01   5.7300000e+02   8.6859009e+00   0.0000000e+00
   1.3790374e+01   5.7600000e+02   8.3499919e+00   0.0000000e+00
   1.3800375e+01   5.7800000e+02   8.0070247e+00   0.0000000e+00
   1.3810375e+01   5.8100000e+02   7.6572072e+00   0.0000000e+00
   1.3820375e+01   5.8200000e+02   7.3007538e+00   0.0000000e+00
   1.3830375e+01   5.8400000e+02   6.9378852e+00   0.0000000e+00
   1.3840376e+01   5.8600000e+02   6.5688279e+00   0.0000000e+00
   1.3850376e+01   5.8800000e+02   6.1938146e+00   0.0000000e+00
   1.3860376e+01   5.9000000e+02   5.8130834e+00   0.0000000e+00
   1.3870377e+01   5.9100000e+02   5.4268782e+00   0.0000000e+00
   1.3880377e+01   5.9300000e+02   5.0354483e+00   0.0000000e+00
   1.3890377e+01   5.9300000e+02   4.6390480e+00   0.0000000e+00
   1.3900377e+01   5.9500000e+02   4.2379370e+00   0.0000000e+00
   1.3910378e+01   5.9500000e+02   3.8323793e+00   0.0000000e+00
   1.3920378e+01   5.9600000e+02   3.4226441e+00   0.0000000e+00
   1.3930378e+01   5.9600000e+02   3.0090046e+00   0.0000000e+00
   1.3940378e+01   5.9600000e+02   2.5917385e+00   0.0000000e+00
   1.3950379e+01   5.9600000e+02   2.1711274e+00   0.0000000e+00
   1.3960379e+01   5.9700000e+02   1.7474567e+00   0.0000000e+00
   1.3970379e+01   5.9700000e+02   1.3210155e+00   0.0000000e+00
   1.3980379e+01   5.9700000e+02   8.9209609e-01   0.0000000e+00
   1.3990380e+01   5.9700000e+02   4.6099399e-01   0.0000000e+00
   1.4000380e+01   5.9700000e+02   2.8007591e-02   0.0000000e+00
   1.4010380e+01   5.9700000e+02  -4.0656205e-01   0.0000000e+00
   1.4020381e+01   5.9600000e+02  -8.4241146e-01   0.0000000e+00
   1.4030381e+01   5.9600000e+02  -1.2792350e+00   0.0000000e+00
   1.4040381e+01   5.9500000e+02  -1.7167251e+00   0.0000000e+00
   1.4050381e+01   5.9400000e+02  -2.1545726e+00   0.0000000e+00
   1.4060382e+01   5.9400000e+02  -2.5924667e+00   0.0000000e+00
   1.4070382e+01   5.9300000e+02  -3.0300956e+00   0.0000000e+00
   1.4080382e+01   5.9200000e+02  -3.4671466e+00   0.0000000e+00
   1.4090382e+01   5.9100000e+02  -3.9033063e+00   0.0000000e+00
   1.4100383e+01   5.9000000e+02  -4.3382609e+00   0.0000000e+00
   1.4110383e+01   5.9000000e+02  -4.7716965e+00   0.0000000e+00
   1.4120383e+01   5.8900000e+02  -5.2032994e+00   0.0000000e+00
   1.4130384e+01   5.8900000e+02  -5.6327562e+00   0.0000000e+00
   1.4140384e+01   5.8800000e+02  -6.0597542e+00   0.0000000e+00
   1.4150384e+01   5.8800000e+02  -6.4839817e+00   0.0000000e+00
   1.4160384e+01   5.8800000e+02  -6.9051281e+00   0.0000000e+00
   1.4170385e+01   5.8700000e+02  -7.3228845e+00   0.0000000e+00
   1.4180385e+01   5.8700000e+02  -7.7369435e+00   0.0000000e+00
   1.4190385e+01   5.8700000e+02  -8.1469998e+00   0.0000000e+00
   1.4200385e+01   5.8700000e+02  -8.5527505e+00   0.0000000e+00
   1.4210386e+01   5.8700000e+02  -8.9538951e+00   0.0000000e+00
   1.4220386e+01   5.8600000e+02  -9.3501358e+00   0.0000000e+00
   1.4230386e+01   5.8500000e+02  -9.7411783e+00   0.0000000e+00
   1.4240387e+01   5.8400000e+02  -1.0126731e+01   0.0000000e+00
   1.4250387e+01   5.8400000e+02  -1.0506507e+01   0.0000000e+00
   1.4260387e+01   5.8300000e+02  -1.0880222e+01   0.0000000e+00
   1.4270387e+01   5.8200000e+02  -1.1247596e+01   0.0000000e+00
   1.4280388e+01   5.8100000e+02  -1.1608354e+01   0.0000000e+00
   1.4290388e+01   5.8000000e+02  -1.1962226e+01   0.0000000e+00
   1.4300388e+01   5.7900000e+02  -1.2308946e+01   0.0000000e+00
   1.4310388e+01   5.7800000e+02  -1.2648252e+01   0.0000000e+00
   1.4320389e+01   5.7700000e+02  -1.2979891e+01   0.0000000e+00
   1.4330389e+01   5.7600000e+02  -1.3303611e+01   0.0000000e+00
   1.4340389e+01   5.7500000e+02  -1.3619169e+01   0.0000000e+00
   1.4350390e+01   5.7400000e+02  -1.3926327e+01   0.0000000e+00
   1.4360390e+01   5.7300000e+02  -1.4224854e+01   0.0000000e+00
   1.4370390e+01   5.7200000e+02  -1.4514524e+01   0.0000000e+00
   1.4380390e+01   5.7100000e+02  -1.4795119e+01   0.0000000e+00
   1.4390391e+01   5.7000000e+02  -1.5066428e+01   0.0000000e+00
   1.4400391e+01   5.6900000e+02  -1.5328246e+01   0.0000000e+00
   1.4410391e+01   5.6800000e+02  -1.5580376e+01   0.0000000e+00
   1.4420391e+01   5.6700000e+02  -1.5822628e+01   0.0000000e+00
   1.4430392e+01   5.6600000e+02  -1.6054821e+01   0.0000000e+00
   1.4440392e+01   5.6500000e+02  -1.6276780e+01   0.0000000e+00
   1.4450392e+01   5.6300000e+02  -1.6488340e+01   0.0000000e+00
   1.4460393e+01   5.6200000e+02  -1.6689343e+01   0.0000000e+00
   1.4470393e+01   5.6100000e+02  -1.6879639e+01   0.0000000e+00
   1.4480393e+01   5.5900000e+02  -1.7059088e+01   0.0000000e+00
   1.4490393e+01   5.5900000e+02  -1.7227557e+01   0.0000000e+00
   1.4500394e+01   5.5700000e+02  -1.7384923e+01   0.0000000e+00
   1.4510394e+01   5.5700000e+02  -1.7531071e+01   0.0000000e+00
   1.4520394e+01   5.5600000e+02  -1.7665896e+01   0.0000000e+00
   1.4530394e+01   5.5500000e+02  -1.7789302e+01   0.0000000e+00
   1.4540395e+01   5.5400000e+02  -1.7901201e+01   0.0000000e+00
   1.4550395e+01   5.5300000e+02  -1.8001516e+01   0.0000000e+00
   1.4560395e+01   5.5300000e+02  -1.8090179e+01   0.0000000e+00
   1.4570396e+01   5.5200000e+02  -1.8167130e+01   0.0000000e+00
   1.4580396e+01   5.5100000e+02  -1.8232321e+01   0.0000000e+00
   1.4590396e+01   5.5100000e+02  -1.8285712e+01   0.0000000e+00
   1.4600396e+01   5.5100000e+02  -1.8327274e+01   0.0000000e+00
   1.4610397e+01   5.5100000e+02  -1.8356987e+01   0.0000000e+00
   1.4620397e+01   5.5100000e+02  -1.8374840e+01   0.0000000e+00
   1.4630397e+01   5.5000000e+02  -1.8380833e+01   0.0000000e+00
   1.4640397e+01   5.5000000e+02  -1.8374976e+01   0.0000000e+00
   1.4650398e+01   5.5000000e+02  -1.8357287e+01   0.0000000e+00
   1.4660398e+01   5.4900000e+02  -1.8327797e+01   0.0000000e+00
   1.4670398e+01   5.4800000e+02  -1.8286545e+01   0.0000000e+00
   1.4680398e+01   5.4800000e+02  -1.8233578e+01   0.0000000e+00
   1.4690399e+01   5.4800000e+02  -1.8168957e+01   0.0000000e+00
   1.4700399e+01   5.4800000e+02  -1.8092749e+01   0.0000000e+00
   1.4710399e+01   5.4800000e+02  -1.8005032e+01   0.0000000e+00
   1.4720400e+01   5.4800000e+02  -1.7905895e+01   0.0000000e+00
   1.4730400e+01   5.4800000e+02  -1.7795435e+01   0.0000000e+00
   1.4740400e+01   5.4800000e+02  -1.7673759e+01   0.0000000e+00
   1.4750400e+01   5.4800000e+02  -1.7540983e+01   0.0000000e+00
   1.4760401e+01   5.4800000e+02  -1.7397233e+01   0.0000000e+00
   1.4770401e+01   5.4900000e+02  -1.7242645e+01   0.0000000e+00
   1.4780401e+01   5.5000000e+02  -1.7077361e+01   0.0000000e+00
   1.4790401e+01   5.5000000e+02  -1.6901536e+01   0.0000000e+00
   1.4800402e+01   5.5000000e+02  -1.6715332e+01   0.0000000e+00
   1.4810402e+01   5.5000000e+02  -1.6518919e+01   0.0000000e+00
   1.4820402e+01   5.5000000e+02  -1.6312477e+01   0.0000000e+00
   1.4830403e+01   5.5000000e+02  -1.6096194e+01   0.0000000e+00
   1.4840403e+01   5.5000000e+02  -1.5870265e+01   0.0000000e+00
   1.4850403e+01   5.5000000e+02  -1.5634896e+01   0.0000000e+00
   1.4860403e+01   5.5100000e+02  -1.5390299e+01   0.0000000e+00
   1.4870404e+01   5.5000000e+02  -1.5136693e+01   0.0000000e+00
   1.4880404e+01   5.5000000e+02  -1.4874306e+01   0.0000000e+00
   1.4890404e+01   5.5000000e+02  -1.4603374e+01   0.0000000e+00
   1.4900404e+01   5.5000000e+02  -1.4324137e+01   0.0000000e+00
   1.4910405e+01   5.4900000e+02  -1.4036847e+01   0.0000000e+00
   1.4920405e+01   5.4800000e+02  -1.3741757e+01   0.0000000e+00
   1.4930405e+01   5.4800000e+02  -1.3439131e+01   0.0000000e+00
   1.4940406e+01   5.4800000e+02  -1.3129237e+01   0.0000000e+00
   1.4950406e+01   5.4700000e+02  -1.2812350e+01   0.0000000e+00
   1.4960406e+01   5.4700000e+02  -1.2488750e+01   0.0000000e+00
   1.4970406e+01   5.4600000e+02  -1.2158722e+01   0.0000000e+00
   1.4980407e+01   5.4600000e+02  -1.1822557e+01   0.0000000e+00
   1.4990407e+01   5.4600000e+02  -1.1480553e+01   0.0000000e+00
   1.5000407e+01   5.4600000e+02  -1.1133009e+01   0.0000000e+00
   1.5010407e+01   5.4600000e+02  -1.0780230e+01   0.0000000e+00
   1.5020408e+01   5.4500000e+02  -1.0422525e+01   0.0000000e+00
   1.5030408e+01   5.4500000e+02  -1.0060209e+01   0.0000000e+00
   1.5040408e+01   5.4500000e+02  -9.6935967e+00   0.0000000e+00
   1.5050409e+01   5.4500000e+02  -9.3230087e+00   0.0000000e+00
   1.5060409e+01   5.4400000e+02  -8.9487678e+00   0.0000000e+00
   1.5070409e+01   5.4400000e+02  -8.5711995e+00   0.0000000e+00
   1.5080409e+01   5.4300000e+02  -8.1906316e+00   0.0000000e+00
   1.5090410e+01   5.4300000e+02  -7.8073940e+00   0.0000000e+00
   1.5100410e+01   5.4300000e+02  -7.4218184e+00   0.0000000e+00
   1.5110410e+01   5.4300000e+02  -7.0342377e+00   0.0000000e+00
   1.5120410e+01   5.4200000e+02  -6.6449861e+00   0.0000000e+00
   1.5130411e+01   5.4200000e+02  -6.2543985e+00   0.0000000e+00
   1.5140411e+01   5.4100000e+02  -5.8628102e+00   0.0000000e+00
   1.5150411e+01   5.4100000e+02  -5.4705568e+00   0.0000000e+00
   1.5160412e+01   5.4100000e+02  -5.0779736e+00   0.0000000e+00
   1.5170412e+01   5.4000000e+02  -4.6853955e+00   0.0000000e+00
   1.5180412e+01   5.4000000e+02  -4.2931563e+00   0.0000000e+00
   1.5190412e+01   5.3900000e+02  -3.9015890e+00   0.0000000e+00
   1.5200413e+01   5.3900000e+02  -3.5110250e+00   0.0000000e+00
   1.5210413e+01   5.3800000e+02  -3.1217939e+00   0.0000000e+00
   1.5220413e+01   5.3800000e+02  -2.7342232e+00   0.0000000e+00
   1.5230413e+01   5.3700000e+02  -2.3486380e+00   0.0000000e+00
   1.5240414e+01   5.3700000e+02  -1.9653606e+00   0.0000000e+00
   1.5250414e+01   5.3700000e+02  -1.5847103e+00   0.0000000e+00
   1.5260414e+01   5.3700000e+02  -1.2070032e+00   0.0000000e+00
   1.5270415e+01   5.3700000e+02  -8.3255138e-01   0.0000000e+00
   1.5280415e+01   5.3600000e+02  -4.6166328e-01   0.0000000e+00
   1.5290415e+01   5.3600000e+02  -9.4642904e-02   0.0000000e+00
   1.5300415e+01   5.3600000e+02   2.6821026e-01   0.0000000e+00
   1.5310416e+01   5.3600000e+02   6.2660161e-01   0.0000000e+00
   1.5320416e+01   5.3600000e+02   9.8024168e-01   0.0000000e+00
   1.5330416e+01   5.3500000e+02   1.3288464e+00   0.0000000e+00
   1.5340416e+01   5.3500000e+02   1.6721376e+00   0.0000000e+00
   1.5350417e+01   5.3500000e+02   2.0098427e+00   0.0000000e+00
   1.5360417e+01   5.3500000e+02   2.3416959e+00   0.0000000e+00
   1.5370417e+01   5.3400000e+02   2.6674375e+00   0.0000000e+00
   1.5380417e+01   5.3400000e+02   2.9868147e+00   0.0000000e+00
   1.5390418e+01   5.3400000e+02   3.2995818e+00   0.0000000e+00
   1.5400418e+01   5.3300000e+02   3.6055003e+00   0.0000000e+00
   1.5410418e+01   5.3300000e+02   3.9043393e+00   0.0000000e+00
   1.5420419e+01   5.3300000e+02   4.1958754e+00   0.0000000e+00
   1.5430419e+01   5.3200000e+02   4.4798934e+00   0.0000000e+00
   1.5440419e+01   5.3300000e+02   4.7561862e+00   0.0000000e+00
   1.5450419e+01   5.3200000e+02   5.0245551e+00   0.0000000e+00
   1.5460420e+01   5.3200000e+02   5.2848098e+00   0.0000000e+00
   1.5470420e+01   5.3200000e+02   5.5367690e+00   0.0000000e+00
   1.5480420e+01   5.3200000e+02   5.7802602e+00   0.0000000e+00
   1.5490420e+01   5.3200000e+02   6.0151201e+00   0.0000000e+00
   1.5500421e+01   5.3200000e+02   6.2411946e+00   0.0000000e+00
   1.5510421e+01   5.3200000e+02   6.4583391e+00   0.0000000e+00
   1.5520421e+01   5.3200000e+02   6.6664186e+00   0.0000000e+00
   1.5530422e+01   5.3200000e+02   6.8653078e+00   0.0000000e+00
   1.5540422e+01   5.3200000e+02   7.0548911e+00   0.0000000e+00
   1.5550422e+01   5.3200000e+02   7.2350631e+00   0.0000000e+00
   1.5560422e+01   5.3200000e+02   7.4057283e+00   0.0000000e+00
   1.5570423e+01   5.3200000e+02   7.5668014e+00   0.0000000e+00
   1.5580423e+01   5.3100000e+02   7.7182075e+00   0.0000000e+00
   1.5590423e+01   5.3100000e+02   7.8598816e+00   0.0000000e+00
   1.5600423e+01   5.3100000e+02   7.9917696e+00   0.0000000e+00
   1.5610424e+01   5.3000000e+02   8.1138276e+00   0.0000000e+00
   1.5620424e+01   5.2900000e+02   8.2260221e+00   0.0000000e+00
   1.5630424e+01   5.2900000e+02   8.3283302e+00   0.0000000e+00
   1.5640425e+01   5.2800000e+02   8.4207396e+00   0.0000000e+00
   1.5650425e+01   5.2700000e+02   8.5032486e+00   0.0000000e+00
   1.5660425e+01   5.2700000e+02   8.5758658e+00   0.0000000e+00
   1.5670425e+01   5.2600000e+02   8.6386107e+00   0.0000000e+00
   1.5680426e+01   5.2600000e+02   8.6915129e+00   0.0000000e+00
   1.5690426e+01   5.2600000e+02   8.7346130e+00   0.0000000e+00
   1.5700426e+01   5.2500000e+02   8.7679615e+00   0.0000000e+00
   1.5710426e+01   5.2400000e+02   8.7916198e+00   0.0000000e+00
   1.5720427e+01   5.2400000e+02   8.8056593e+00   0.0000000e+00
   1.5730427e+01   5.2300000e+02   8.8101619e+00   0.0000000e+00
   1.5740427e+01   5.2200000e+02   8.8052193e+00   0.0000000e+00
   1.5750428e+01   5.2100000e+02   8.7909337e+00   0.0000000e+00
   1.5760428e+01   5.2100000e+02   8.7674171e+00   0.0000000e+00
   1.5770428e+01   5.1900000e+02   8.7347913e+00   0.0000000e+00
   1.5780428e+01   5.1900000e+02   8.6931879e+00   0.0000000e+00
   1.5790429e+01   5.1700000e+02   8.6427480e+00   0.0000000e+00
   1.5800429e+01   5.1600000e+02   8.5836224e+00   0.0000000e+00
   1.5810429e+01   5.1500000e+02   8.5159707e+00   0.0000000e+00
   1.5820429e+01   5.1400000e+02   8.4399622e+00   0.0000000e+00
   1.5830430e+01   5.1300000e+02   8.3557747e+00   0.0000000e+00
   1.5840430e+01   5.1200000e+02   8.2635949e+00   0.0000000e+00
   1.5850430e+01   5.1100000e+02   8.1636181e+00   0.0000000e+00
   1.5860431e+01   5.1000000e+02   8.0560480e+00   0.0000000e+00
   1.5870431e+01   5.0900000e+02   7.9410963e+00   0.0000000e+00
   1.5880431e+01   5.0800000e+02   7.8189826e+00   0.0000000e+00
   1.5890431e+01   5.0800000e+02   7.6899344e+00   0.0000000e+00
   1.5900432e+01   5.0700000e+02   7.5541864e+00   0.0000000e+00
   1.5910432e+01   5.0700000e+02   7.4119806e+00   0.0000000e+00
   1.5920432e+01   5.0500000e+02   7.2635661e+00   0.0000000e+00
   1.5930432e+01   5.0500000e+02   7.1091983e+00   0.0000000e+00
   1.5940433e+01   5.0500000e+02   6.9491394e+00   0.0000000e+00
   1.5950433e+01   5.0400000e+02   6.7836575e+00   0.0000000e+00
   1.5960433e+01   5.0300000e+02   6.6130267e+00   0.0000000e+00
   1.5970434e+01   5.0200000e+02   6.4375264e+00   0.0000000e+00
   1.5980434e+01   5.0200000e+02   6.2574415e+00   0.0000000e+00
   1.5990434e+01   5.0200000e+02   6.0730618e+00   0.0000000e+00
   1.6000434e+01   5.0100000e+02   5.8846817e+00   0.0000000e+00
   1.6010435e+01   5.0000000e+02   5.6926000e+00   0.0000000e+00
   1.6020435e+01   5.0000000e+02   5.4971194e+00   0.0000000e+00
   1.6030435e+01   5.0000000e+02   5.2985463e+00   0.0000000e+00
   1.6040435e+01   4.9900000e+02   5.0971907e+00   0.0000000e+00
   1.6050436e+01   4.9900000e+02   4.8933653e+00   0.0000000e+00
   1.6060436e+01   4.9800000e+02   4.6873856e+00   0.0000000e+00
   1.6070436e+01   4.9800000e+02   4.4795696e+00   0.0000000e+00
   1.6080436e+01   4.9800000e+02   4.2702372e+00   0.0000000e+00
   1.6090437e+01   4.9700000e+02   4.0597099e+00   0.0000000e+00
   1.6100437e+01   4.9700000e+02   3.8483106e+00   0.0000000e+00
   1.6110437e+01   4.9700000e+02   3.6363632e+00   0.0000000e+00
   1.6120438e+01   4.9700000e+02   3.4241920e+00   0.0000000e+00
   1.6130438e+01   4.9700000e+02   3.2121220e+00   0.0000000e+00
   1.6140438e+01   4.9600000e+02   3.0004777e+00   0.0000000e+00
   1.6150438e+01   4.9600000e+02   2.7895834e+00   0.0000000e+00
   1.6160439e+01   4.9600000e+02   2.5797624e+00   0.0000000e+00
   1.6170439e+01   4.9600000e+02   2.3713371e+00   0.0000000e+00
   1.6180439e+01   4.9600000e+02   2.1646283e+00   0.0000000e+00
   1.6190439e+01   4.9500000e+02   1.9599549e+00   0.0000000e+00
   1.6200440e+01   4.9500000e+02   1.7576336e+00   0.0000000e+00
   1.6210440e+01   4.9500000e+02   1.5579787e+00   0.0000000e+00
   1.6220440e+01   4.9400000e+02   1.3613014e+00   0.0000000e+00
   1.6230441e+01   4.9400000e+02   1.1679099e+00   0.0000000e+00
   1.6240441e+01   4.9400000e+02   9.7810860e-01   0.0000000e+00
   1.6250441e+01   4.9300000e+02   7.9219815e-01   0.0000000e+00
   1.6260441e+01   4.9400000e+02   6.1047489e-01   0.0000000e+00
   1.6270442e+01   4.9400000e+02   4.3323057e-01   0.0000000e+00
   1.6280442e+01   4.9300000e+02   2.6075207e-01   0.0000000e+00
   1.6290442e+01   4.9400000e+02   9.3321023e-02   0.0000000e+00
   1.6300442e+01   4.9300000e+02  -6.8786452e-02   0.0000000e+00
   1.6310443e+01   4.9400000e+02  -2.2530010e-01   0.0000000e+00
   1.6320443e+01   4.9400000e+02  -3.7595582e-01   0.0000000e+00
   1.6330443e+01   4.9400000e+02  -5.2049595e-01   0.0000000e+00
   1.6340444e+01   4.9400000e+02  -6.5866959e-01   0.0000000e+00
   1.6350444e+01   4.9400000e+02  -7.9023287e-01   0.0000000e+00
   1.6360444e+01   4.9500000e+02  -9.1494923e-01   0.0000000e+00
   1.6370444e+01   4.9400000e+02  -1.0325897e+00   0.0000000e+00
   1.6380445e+01   4.9500000e+02  -1.1429331e+00   0.0000000e+00
   1.6390445e+01   4.9500000e+02  -1.2457664e+00   0.0000000e+00
   1.6400445e+01   4.9500000e+02  -1.3408850e+00   0.0000000e+00
   1.6410445e+01   4.9500000e+02  -1.4280928e+00   0.0000000e+00
   1.6420446e+01   4.9500000e+02  -1.5072025e+00   0.0000000e+00
   1.6430446e+01   4.9600000e+02  -1.5780358e+00   0.0000000e+00
   1.6440446e+01   4.9600000e+02  -1.6404240e+00   0.0000000e+00
   1.6450447e+01   4.9600000e+02  -1.6942074e+00   0.0000000e+00
   1.6460447e+01   4.9600000e+02  -1.7392362e+00   0.0000000e+00
   1.6470447e+01   4.9600000e+02  -1.7753705e+00   0.0000000e+00
   1.6480447e+01   4.9700000e+02  -1.8024802e+00   0.0000000e+00
   1.6490448e+01   4.9600000e+02  -1.8204457e+00   0.0000000e+00
   1.6500448e+01   4.9700000e+02  -1.8291574e+00   0.0000000e+00
   1.6510448e+01   4.9700000e+02  -1.8285164e+00   0.0000000e+00
   1.6520448e+01   4.9700000e+02  -1.8184344e+00   0.0000000e+00
   1.6530449e+01   4.9700000e+02  -1.7988336e+00   0.0000000e+00
   1.6540449e+01   4.9700000e+02  -1.7696474e+00   0.0000000e+00
   1.6550449e+01   4.9700000e+02  -1.7308200e+00   0.0000000e+00
   1.6560450e+01   4.9700000e+02  -1.6823064e+00   0.0000000e+00
   1.6570450e+01   4.9700000e+02  -1.6240731e+00   0.0000000e+00
   1.6580450e+01   4.9700000e+02  -1.5560975e+00   0.0000000e+00
   1.6590450e+01   4.9700000e+02  -1.4783683e+00   0.0000000e+00
   1.6600451e+01   4.9800000e+02  -1.3908856e+00   0.0000000e+00
   1.6610451e+01   4.9800000e+02  -1.2936605e+00   0.0000000e+00
   1.6620451e+01   4.9800000e+02  -1.1867158e+00   0.0000000e+00
   1.6630451e+01   4.9800000e+02  -1.0700853e+00   0.0000000e+00
   1.6640452e+01   4.9900000e+02  -9.4381434e-01   0.0000000e+00
   1.6650452e+01   4.9900000e+02  -8.0795939e-01   0.0000000e+00
   1.6660452e+01   4.9900000e+02  -6.6258830e-01   0.0000000e+00
   1.6670453e+01   4.9900000e+02  -5.0778014e-01   0.0000000e+00
   1.6680453e+01   4.9900000e+02  -3.4362514e-01   0.0000000e+00
   1.6690453e+01   5.0000000e+02  -1.7022466e-01   0.0000000e+00
   1.6700453e+01   4.9900000e+02   1.2308909e-02   0.0000000e+00
   1.6710454e+01   4.9900000e+02   2.0385222e-01   0.0000000e+00
   1.6720454e+01   5.0000000e+02   4.0427109e-01   0.0000000e+00
   1.6730454e+01   5.0000000e+02   6.1342056e-01   0.0000000e+00
   1.6740454e+01   5.0000000e+02   8.3114508e-01   0.0000000e+00
   1.6750455e+01   5.0000000e+02   1.0572786e+00   0.0000000e+00
   1.6760455e+01   5.0100000e+02   1.2916448e+00   0.0000000e+00
   1.6770455e+01   5.0100000e+02   1.5340570e+00   0.0000000e+00
   1.6780455e+01   5.0200000e+02   1.7843186e+00   0.0000000e+00
   1.6790456e+01   5.0200000e+02   2.0422234e+00   0.0000000e+00
   1.6800456e+01   5.0200000e+02   2.3075550e+00   0.0000000e+00
   1.6810456e+01   5.0200000e+02   2.5800881e+00   0.0000000e+00
   1.6820457e+01   5.0300000e+02   2.8595878e+00   0.0000000e+00
   1.6830457e+01   5.0200000e+02   3.1458103e+00   0.0000000e+00
   1.6840457e+01   5.0200000e+02   3.4385030e+00   0.0000000e+00
   1.6850457e+01   5.0200000e+02   3.7374047e+00   0.0000000e+00
   1.6860458e+01   5.0300000e+02   4.0422458e+00   0.0000000e+00
   1.6870458e+01   5.0300000e+02   4.3527490e+00   0.0000000e+00
   1.6880458e+01   5.0300000e+02   4.6686287e+00   0.0000000e+00
   1.6890458e+01   5.0300000e+02   4.9895921e+00   0.0000000e+00
   1.6900459e+01   5.0300000e+02   5.3153391e+00   0.0000000e+00
   1.6910459e+01   5.0400000e+02   5.6455625e+00   0.0000000e+00
   1.6920459e+01   5.0300000e+02   5.9799487e+00   0.0000000e+00
   1.6930460e+01   5.0300000e+02   6.3181775e+00   0.0000000e+00
   1.6940460e+01   5.0400000e+02   6.6599229e+00   0.0000000e+00
   1.6950460e+01   5.0400000e+02   7.0048528e+00   0.0000000e+00
   1.6960460e+01   5.0400000e+02   7.3526301e+00   0.0000000e+00
   1.6970461e+01   5.0400000e+02   7.7029124e+00   0.0000000e+00
   1.6980461e+01   5.0500000e+02   8.0553526e+00   0.0000000e+00
   1.6990461e+01   5.0500000e+02   8.4095992e+00   0.0000000e+00
   1.7000461e+01   5.0500000e+02   8.7652968e+00   0.0000000e+00
   1.7010462e+01   5.0500000e+02   9.1220860e+00   0.0000000e+00
   1.7020462e+01   5.0500000e+02   9.4796043e+00   0.0000000e+00
   1.7030462e+01   5.0500000e+02   9.8374862e+00   0.0000000e+00
   1.7040463e+01   5.0500000e+02   1.0195363e+01   0.0000000e+00
   1.7050463e+01   5.0600000e+02   1.0552866e+01   0.0000000e+00
   1.7060463e+01   5.0600000e+02   1.0909620e+01   0.0000000e+00
   1.7070463e+01   5.0700000e+02   1.1265254e+01   0.0000000e+00
   1.7080464e+01   5.0600000e+02   1.1619391e+01   0.0000000e+00
   1.7090464e+01   5.0600000e+02   1.1971656e+01   0.0000000e+00
   1.7100464e+01   5.0700000e+02   1.2321672e+01   0.0000000e+00
   1.7110464e+01   5.0700000e+02   1.2669065e+01   0.0000000e+00
   1.7120465e+01   5.0700000e+02   1.3013456e+01   0.0000000e+00
   1.7130465e+01   5.0700000e+02   1.3354473e+01   0.0000000e+00
   1.7140465e+01   5.0800000e+02   1.3691740e+01   0.0000000e+00
   1.7150466e+01   5.0800000e+02   1.4024885e+01   0.0000000e+00
   1.7160466e+01   5.0800000e+02   1.4353537e+01   0.0000000e+00
   1.7170466e+01   5.0800000e+02   1.4677328e+01   0.0000000e+00
   1.7180466e+01   5.0800000e+02   1.4995892e+01   0.0000000e+00
   1.7190467e+01   5.0800000e+02   1.5308867e+01   0.0000000e+00
   1.7200467e+01   5.0800000e+02   1.5615892e+01   0.0000000e+00
   1.7210467e+01   5.0900000e+02   1.5916611e+01   0.0000000e+00
   1.7220467e+01   5.0900000e+02   1.6210674e+01   0.0000000e+00
   1.7230468e+01   5.1000000e+02   1.6497732e+01   0.0000000e+00
   1.7240468e+01   5.1000000e+02   1.6777444e+01   0.0000000e+00
   1.7250468e+01   5.1000000e+02   1.7049471e+01   0.0000000e+00
   1.7260469e+01   5.1100000e+02   1.7313481e+01   0.0000000e+00
   1.7270469e+01   5.1100000e+02   1.7569148e+01   0.0000000e+00
   1.7280469e+01   5.1100000e+02   1.7816153e+01   0.0000000e+00
   1.7290469e+01   5.1200000e+02   1.8054181e+01   0.0000000e+00
   1.7300470e+01   5.1200000e+02   1.8282926e+01   0.0000000e+00
   1.7310470e+01   5.1200000e+02   1.8502087e+01   0.0000000e+00
   1.7320470e+01   5.1200000e+02   1.8711372e+01   0.0000000e+00
   1.7330470e+01   5.1300000e+02   1.8910497e+01   0.0000000e+00
   1.7340471e+01   5.1300000e+02   1.9099185e+01   0.0000000e+00
   1.7350471e+01   5.1400000e+02   1.9277166e+01   0.0000000e+00
   1.7360471e+01   5.1400000e+02   1.9444182e+01   0.0000000e+00
   1.7370472e+01   5.1400000e+02   1.9599981e+01   0.0000000e+00
   1.7380472e+01   5.1500000e+02   1.9744320e+01   0.0000000e+00
   1.7390472e+01   5.1500000e+02   1.9876967e+01   0.0000000e+00
   1.7400472e+01   5.1500000e+02   1.9997699e+01   0.0000000e+00
   1.7410473e+01   5.1500000e+02   2.0106302e+01   0.0000000e+00
   1.7420473e+01   5.1500000e+02   2.0202572e+01   0.0000000e+00
   1.7430473e+01   5.1600000e+02   2.0286316e+01   0.0000000e+00
   1.7440473e+01   5.1600000e+02   2.0357351e+01   0.0000000e+00
   1.7450474e+01   5.1600000e+02   2.0415505e+01   0.0000000e+00
   1.7460474e+01   5.1700000e+02   2.0460617e+01   0.0000000e+00
   1.7470474e+01   5.1700000e+02   2.0492534e+01   0.0000000e+00
   1.7480474e+01   5.1800000e+02   2.0511119e+01   0.0000000e+00
   1.7490475e+01   5.1800000e+02   2.0516242e+01   1.0000000e+00
   1.7500475e+01   5.1800000e+02   2.0507786e+01   0.0000000e+00
   1.7510475e+01   5.1900000e+02   2.0485647e+01   0.0000000e+00
   1.7520476e+01   5.1900000e+02   2.0449730e+01   0.0000000e+00
   1.7530476e+01   5.1900000e+02   2.0399953e+01   0.0000000e+00
   1.7540476e+01   5.1900000e+02   2.0336245e+01   0.0000000e+00
   1.7550476e+01   5.1900000e+02   2.0258549e+01   0.0000000e+00
   1.7560477e+01   5.1900000e+02   2.0166818e+01   0.0000000e+00
   1.7570477e+01   5.2000000e+02   2.0061016e+01   0.0000000e+00
   1.7580477e+01   5.2000000e+02   1.9941122e+01   0.0000000e+00
   1.7590477e+01   5.2100000e+02   1.9807125e+01   0.0000000e+00
   1.7600478e+01   5.2100000e+02   1.9659027e+01   0.0000000e+00
   1.7610478e+01   5.2100000e+02   1.9496841e+01   0.0000000e+00
   1.7620478e+01   5.2100000e+02   1.9320593e+01   0.0000000e+00
   1.7630479e+01   5.2100000e+02   1.9130321e+01   0.0000000e+00
   1.7640479e+01   5.2200000e+02   1.8926074e+01   0.0000000e+00
   1.7650479e+01   5.2200000e+02   1.8707916e+01   0.0000000e+00
   1.7660479e+01   5.2200000e+02   1.8475918e+01   0.0000000e+00
   1.7670480e+01   5.2300000e+02   1.8230168e+01   0.0000000e+00
   1.7680480e+01   5.2300000e+02   1.7970762e+01   0.0000000e+00
   1.7690480e+01   5.2300000e+02   1.7697810e+01   0.0000000e+00
   1.7700480e+01   5.2300000e+02   1.7411432e+01   0.0000000e+00
   1.7710481e+01   5.2400000e+02   1.7111760e+01   0.0000000e+00
   1.7720481e+01   5.2400000e+02   1.6798938e+01   0.0000000e+00
   1.7730481e+01   5.2400000e+02   1.6473121e+01   0.0000000e+00
   1.7740482e+01   5.2400000e+02   1.6134474e+01   0.0000000e+00
   1.7750482e+01   5.2400000e+02   1.5783175e+01   0.0000000e+00
   1.7760482e+01   5.2400000e+02   1.5419410e+01   0.0000000e+00
   1.7770482e+01   5.2400000e+02   1.5043379e+01   0.0000000e+00
   1.7780483e+01   5.2400000e+02   1.4655289e+01   0.0000000e+00
   1.7790483e+01   5.2400000e+02   1.4255358e+01   0.0000000e+00
   1.7800483e+01   5.2400000e+02   1.3843817e+01   0.0000000e+00
   1.7810483e+01   5.2400000e+02   1.3420903e+01   0.0000000e+00
   1.7820484e+01   5.2400000e+02   1.2986864e+01   0.0000000e+00
   1.7830484e+01   5.2500000e+02   1.2541958e+01   0.0000000e+00
   1.7840484e+01   5.2500000e+02   1.2086450e+01   0.0000000e+00
   1.7850485e+01   5.2600000e+02   1.1620616e+01   0.0000000e+00
   1.7860485e+01   5.2500000e+02   1.1144740e+01   0.0000000e+00
   1.7870485e+01   5.2600000e+02   1.0659114e+01   0.0000000e+00
   1.7880485e+01   5.2600000e+02   1.0164037e+01   0.0000000e+00
   1.7890486e+01   5.2600000e+02   9.6598181e+00   0.0000000e+00
   1.7900486e+01   5.2700000e+02   9.1467715e+00   0.0000000e+00
   1.7910486e+01   5.2700000e+02   8.6252196e+00   0.0000000e+00
   1.7920486e+01   5.2700000e+02   8.0954918e+00   0.0000000e+00
   1.7930487e+01   5.2700000e+02   7.5579235e+00   0.0000000e+00
   1.7940487e+01   5.2700000e+02   7.0128567e+00   0.0000000e+00
   1.7950487e+01   5.2700000e+02   6.4606391e+00   0.0000000e+00
   1.7960488e+01   5.2700000e+02   5.9016240e+00   0.0000000e+00
   1.7970488e+01   5.2700000e+02   5.3361699e+00   0.0000000e+00
   1.7980488e+01   5.2700000e+02   4.7646402e+00   0.0000000e+00
   1.7990488e+01   5.2700000e+02   4.1874029e+00   0.0000000e+00
   1.8000489e+01   5.2700000e+02   3.6048302e+00   0.0000000e+00
   1.8010489e+01   5.2700000e+02   3.0172982e+00   0.0000000e+00
   1.8020489e+01   5.2700000e+02   2.4251863e+00   0.0000000e+00
   1.8030489e+01   5.2700000e+02   1.8288775e+00   0.0000000e+00
   1.8040490e+01   5.2800000e+02   1.2287571e+00   0.0000000e+00
   1.8050490e+01   5.2700000e+02   6.2521335e-01   0.0000000e+00
   1.8060490e+01   5.2700000e+02   1.8636272e-02   0.0000000e+00
   1.8070491e+01   5.2700000e+02  -5.9058223e-01   0.0000000e+00
   1.8080491e+01   5.2800000e+02  -1.2020489e+00   0.0000000e+00
   1.8090491e+01   5.2700000e+02  -1.8153694e+00   0.0000000e+00
   1.8100491e+01   5.2700000e+02  -2.4301487e+00   0.0000000e+00
   1.8110492e+01   5.2700000e+02  -3.0459916e+00   0.0000000e+00
   1.8120492e+01   5.2700000e+02  -3.6625027e+00   0.0000000e+00
   1.8130492e+01   5.2700000e+02  -4.2792872e+00   0.0000000e+00
   1.8140492e+01   5.2700000e+02  -4.8959509e+00   0.0000000e+00
   1.8150493e+01   5.2700000e+02  -5.5121008e+00   0.0000000e+00
   1.8160493e+01   5.2700000e+02  -6.1273453e+00   0.0000000e+00
   1.8170493e+01   5.2700000e+02  -6.7412946e+00   0.0000000e+00
   1.8180493e+01   5.2700000e+02  -7.3535609e+00   0.0000000e+00
   1.8190494e+01   5.2700000e+02  -7.9637591e+00   0.0000000e+00
   1.8200494e+01   5.2700000e+02  -8.5715066e+00   0.0000000e+00
   1.8210494e+01   5.2700000e+02  -9.1764244e+00   0.0000000e+00
   1.8220495e+01   5.2600000e+02  -9.7781365e+00   0.0000000e+00
   1.8230495e+01   5.2600000e+02  -1.0376271e+01   0.0000000e+00
   1.8240495e+01   5.2500000e+02  -1.0970460e+01   0.0000000e+00
   1.8250495e+01   5.2400000e+02  -1.1560339e+01   0.0000000e+00
   1.8260496e+01   5.2400000e+02  -1.2145551e+01   0.0000000e+00
   1.8270496e+01   5.2200000e+02  -1.2725741e+01   0.0000000e+00
   1.8280496e+01   5.2100000e+02  -1.3300560e+01   0.0000000e+00
   1.8290496e+01   5.2000000e+02  -1.3869667e+01   0.0000000e+00
   1.8300497e+01   5.1900000e+02  -1.4432723e+01   0.0000000e+00
   1.8310497e+01   5.1900000e+02  -1.4989399e+01   0.0000000e+00
   1.8320497e+01   5.1700000e+02  -1.5539369e+01   0.0000000e+00
   1.8330498e+01   5.1600000e+02  -1.6082316e+01   0.0000000e+00
   1.8340498e+01   5.1500000e+02  -1.6617929e+01   0.0000000e+00
   1.8350498e+01   5.1500000e+02  -1.7145904e+01   0.0000000e+00
   1.8360498e+01   5.1400000e+02  -1.7665944e+01   0.0000000e+00
   1.8370499e+01   5.1200000e+02  -1.8177763e+01   0.0000000e+00
   1.8380499e+01   5.1100000e+02  -1.8681077e+01   0.0000000e+00
   1.8390499e+01   5.0900000e+02  -1.9175615e+01   0.0000000e+00
   1.8400499e+01   5.0800000e+02  -1.9661112e+01   0.0000000e+00
   1.8410500e+01   5.0600000e+02  -2.0137311e+01   0.0000000e+00
   1.8420500e+01   5.0400000e+02  -2.0603965e+01   0.0000000e+00
   1.8430500e+01   5.0300000e+02  -2.1060836e+01   0.0000000e+00
   1.8440501e+01   5.0100000e+02  -2.1507693e+01   0.0000000e+00
   1.8450501e+01   4.9900000e+02  -2.1944315e+01   0.0000000e+00
