   0.0000000e+00   5.4500000e+02   2.6185375e-30   0.0000000e+00
   1.0000300e-02   5.4500000e+02   3.5289195e-30   0.0000000e+00
   2.0000600e-02   5.4600000e+02   4.7459822e-30   0.0000000e+00
   3.0000900e-02   5.4500000e+02   6.3697591e-30   0.0000000e+00
   4.0001200e-02   5.4500000e+02   8.5318531e-30   0.0000000e+00
   5.0001500e-02   5.4500000e+02   1.1405069e-29   0.0000000e+00
   6.0001800e-02   5.4500000e+02   1.5215884e-29   0.0000000e+00
   7.0002100e-02   5.4500000e+02   2.0260562e-29   0.0000000e+00
   8.0002400e-02   5.4600000e+02   2.6925947e-29   0.0000000e+00
   9.0002700e-02   5.4600000e+02   3.5716235e-29   0.0000000e+00
   1.0000300e-01   5.4500000e+02   4.7287386e-29   0.0000000e+00
   1.1000330e-01   5.4500000e+02   6.2491296e-29   0.0000000e+00
   1.2000360e-01   5.4500000e+02   8.2432370e-29   0.0000000e+00
   1.3000390e-01   5.4500000e+02   1.0853989e-28   0.0000000e+00
   1.4000420e-01   5.4500000e+02   1.4266038e-28   0.0000000e+00
   1.5000450e-01   5.4500000e+02   1.8717541e-28   0.0000000e+00
   1.6000480e-01   5.4500000e+02   2.4515142e-28   0.0000000e+00
   1.7000510e-01   5.4500000e+02   3.2053018e-28   0.0000000e+00
   1.8000540e-01   5.4400000e+02   4.1837029e-28   0.0000000e+00
   1.9000570e-01   5.4400000e+02   5.4515312e-28   0.0000000e+00
   2.0000600e-01   5.4500000e+02   7.0916967e-28   0.0000000e+00
   2.1000630e-01   5.4400000e+02   9.2100901e-28   0.0000000e+00
   2.2000660e-01   5.4400000e+02   1.1941741e-27   0.0000000e+00
   2.3000690e-01   5.4400000e+02   1.5458568e-27   0.0000000e+00
   2.4000720e-01   5.4300000e+02   1.9979123e-27   0.0000000e+00
   2.5000750e-01   5.4300000e+02   2.5780820e-27   0.0000000e+00
   2.6000780e-01   5.4300000e+02   3.3215254e-27   0.0000000e+00
   2.7000810e-01   5.4300000e+02   4.2727385e-27   0.0000000e+00
   2.8000840e-01   5.4300000e+02   5.4879500e-27   0.0000000e+00
   2.9000870e-01   5.4300000e+02   7.0381118e-27   0.0000000e+00
   3.0000900e-01   5.4300000e+02   9.0126258e-27   0.0000000e+00
   3.1000930e-01   5.4300000e+02   1.1523981e-26   0.0000000e+00
   3.2000960e-01   5.4200000e+02   1.4713518e-26   0.0000000e+00
   3.3000990e-01   5.4300000e+02   1.8758578e-26   0.0000000e+00
   3.4001020e-01   5.4300000e+02   2.3881374e-26   0.0000000e+00
   3.5001050e-01   5.4200000e+02   3.0359954e-26   0.0000000e+00
   3.6001080e-01   5.4200000e+02   3.8541772e-26   0.0000000e+00
   3.7001110e-01   5.4200000e+02   4.8860426e-26   0.0000000e+00
   3.8001140e-01   5.4200000e+02   6.1856306e-26   0.0000000e+00
   3.9001170e-01   5.4100000e+02   7.8202012e-26   0.0000000e+00
   4.0001200e-01   5.4100000e+02   9.8733616e-26   0.0000000e+00
   4.1001230e-01   5.4100000e+02   1.2448907e-25   0.0000000e+00
   4.2001260e-01   5.4100000e+02   1.5675529e-25   0.0000000e+00
   4.3001290e-01   5.4100000e+02   1.9712593e-25   0.0000000e+00
   4.4001320e-01   5.4100000e+02   2.4757194e-25   0.0000000e+00
   4.5001350e-01   5.4100000e+02   3.1052800e-25   0.0000000e+00
   4.6001380e-01   5.4100000e+02   3.8899787e-25   0.0000000e+00
   4.7001410e-01   5.4000000e+02   4.8668300e-25   0.0000000e+00
   4.8001440e-01   5.4000000e+02   6.0813906e-25   0.0000000e+00
   4.9001470e-01   5.4000000e+02   7.5896649e-25   0.0000000e+00
   5.0001500e-01   5.4000000e+02   9.4604201e-25   0.0000000e+00
   5.1001530e-01   5.4000000e+02   1.1777997e-24   0.0000000e+00
   5.2001560e-01   5.4000000e+02   1.4645715e-24   0.0000000e+00
   5.3001590e-01   5.4000000e+02   1.8190006e-24   0.0000000e+00
   5.4001620e-01   5.4000000e+02   2.2565399e-24   0.0000000e+00
   5.5001650e-01   5.4100000e+02   2.7960563e-24   0.0000000e+00
   5.6001680e-01   5.4000000e+02   3.4605586e-24   0.0000000e+00
   5.7001710e-01   5.4000000e+02   4.2780768e-24   0.0000000e+00
   5.8001740e-01   5.4000000e+02   5.2827199e-24   0.0000000e+00
   5.9001770e-01   5.4000000e+02   6.5159500e-24   0.0000000e+00
   6.0001800e-01   5.4000000e+02   8.0281135e-24   0.0000000e+00
   6.1001830e-01   5.4000000e+02   9.8802802e-24   0.0000000e+00
   6.2001860e-01   5.3900000e+02   1.2146449e-23   0.0000000e+00
   6.3001890e-01   5.4000000e+02   1.4916194e-23   0.0000000e+00
   6.4001920e-01   5.3900000e+02   1.8297827e-23   0.0000000e+00
   6.5001950e-01   5.3900000e+02   2.2422186e-23   0.0000000e+00
   6.6001980e-01   5.3900000e+02   2.7447164e-23   0.0000000e+00
   6.7002010e-01   5.3900000e+02   3.3563101e-23   0.0000000e+00
   6.8002040e-01   5.3900000e+02   4.0999239e-23   0.0000000e+00
   6.9002070e-01   5.3900000e+02   5.0031385e-23   0.0000000e+00
   7.0002100e-01   5.3800000e+02   6.0991060e-23   0.0000000e+00
   7.1002130e-01   5.3800000e+02   7.4276353e-23   0.0000000e+00
   7.2002160e-01   5.3800000e+02   9.0364841e-23   0.0000000e+00
   7.3002190e-01   5.3800000e+02   1.0982891e-22   0.0000000e+00
   7.4002220e-01   5.3800000e+02   1.3335392e-22   0.0000000e+00
   7.5002250e-01   5.3700000e+02   1.6175975e-22   0.0000000e+00
   7.6002280e-01   5.3700000e+02   1.9602629e-22   0.0000000e+00
   7.7002310e-01   5.3800000e+02   2.3732357e-22   0.0000000e+00
   7.8002340e-01   5.3700000e+02   2.8704741e-22   0.0000000e+00
   7.9002370e-01   5.3600000e+02   3.4686144e-22   0.0000000e+00
   8.0002400e-01   5.3600000e+02   4.1874678e-22   0.0000000e+00
   8.1002430e-01   5.3600000e+02   5.0506045e-22   0.0000000e+00
   8.2002460e-01   5.3500000e+02   6.0860424e-22   0.0000000e+00
   8.3002490e-01   5.3500000e+02   7.3270576e-22   0.0000000e+00
   8.4002520e-01   5.3400000e+02   8.8131364e-22   0.0000000e+00
   8.5002550e-01   5.3400000e+02   1.0591094e-21   0.0000000e+00
   8.6002580e-01   5.3400000e+02   1.2716388e-21   0.0000000e+00
   8.7002610e-01   5.3400000e+02   1.5254657e-21   0.0000000e+00
   8.8002640e-01   5.3400000e+02   1.8283525e-21   0.0000000e+00
   8.9002670e-01   5.3300000e+02   2.1894712e-21   0.0000000e+00
   9.0002700e-01   5.3300000e+02   2.6196509e-21   0.0000000e+00
   9.1002730e-01   5.3200000e+02   3.1316658e-21   0.0000000e+00
   9.2002760e-01   5.3200000e+02   3.7405731e-21   0.0000000e+00
   9.3002790e-01   5.3200000e+02   4.4641063e-21   0.0000000e+00
   9.4002820e-01   5.3200000e+02   5.3231342e-21   0.0000000e+00
   9.5002850e-01   5.3200000e+02   6.3421956e-21   0.0000000e+00
   9.6002880e-01   5.3100000e+02   7.5501219e-21   0.0000000e+00
   9.7002910e-01   5.3100000e+02   8.9807618e-21   0.0000000e+00
   9.8002940e-01   5.3100000e+02   1.0673823e-20   0.0000000e+00
   9.9002970e-01   5.3100000e+02   1.2675851e-20   0.0000000e+00
   1.0000300e+00   5.3100000e+02   1.5041363e-20   0.0000000e+00
   1.0100303e+00   5.3100000e+02   1.7834168e-20   0.0000000e+00
   1.0200306e+00   5.3100000e+02   2.1128890e-20   0.0000000e+00
   1.0300309e+00   5.3000000e+02   2.5012741e-20   0.0000000e+00
   1.0400312e+00   5.3000000e+02   2.9587563e-20   0.0000000e+00
   1.0500315e+00   5.2900000e+02   3.4972195e-20   0.0000000e+00
   1.0600318e+00   5.2900000e+02   4.1305214e-20   0.0000000e+00
   1.0700321e+00   5.2900000e+02   4.8748089e-20   0.0000000e+00
   1.0800324e+00   5.2900000e+02   5.7488830e-20   0.0000000e+00
   1.0900327e+00   5.2800000e+02   6.7746194e-20   0.0000000e+00
   1.1000330e+00   5.2800000e+02   7.9774530e-20   0.0000000e+00
   1.1100333e+00   5.2800000e+02   9.3869361e-20   0.0000000e+00
   1.1200336e+00   5.2700000e+02   1.1037381e-19   0.0000000e+00
   1.1300339e+00   5.2700000e+02   1.2968600e-19   0.0000000e+00
   1.1400342e+00   5.2700000e+02   1.5226752e-19   0.0000000e+00
   1.1500345e+00   5.2600000e+02   1.7865321e-19   0.0000000e+00
   1.1600348e+00   5.2600000e+02   2.0946234e-19   0.0000000e+00
   1.1700351e+00   5.2500000e+02   2.4541146e-19   0.0000000e+00
   1.1800354e+00   5.2500000e+02   2.8732913e-19   0.0000000e+00
   1.1900357e+00   5.2400000e+02   3.3617278e-19   0.0000000e+00
   1.2000360e+00   5.2400000e+02   3.9304802e-19   0.0000000e+00
   1.2100363e+00   5.2400000e+02   4.5923074e-19   0.0000000e+00
   1.2200366e+00   5.2300000e+02   5.3619238e-19   0.0000000e+00
   1.2300369e+00   5.2300000e+02   6.2562878e-19   0.0000000e+00
   1.2400372e+00   5.2200000e+02   7.2949314e-19   0.0000000e+00
   1.2500375e+00   5.2200000e+02   8.5003366e-19   0.0000000e+00
   1.2600378e+00   5.2100000e+02   9.8983644e-19   0.0000000e+00
   1.2700381e+00   5.2000000e+02   1.1518744e-18   0.0000000e+00
   1.2800384e+00   5.2000000e+02   1.3395628e-18   0.0000000e+00
   1.2900387e+00   5.2000000e+02   1.5568231e-18   0.0000000e+00
   1.3000390e+00   5.1900000e+02   1.8081547e-18   0.0000000e+00
   1.3100393e+00   5.1900000e+02   2.0987169e-18   0.0000000e+00
   1.3200396e+00   5.1900000e+02   2.4344228e-18   0.0000000e+00
   1.3300399e+00   5.1900000e+02   2.8220443e-18   0.0000000e+00
   1.3400402e+00   5.1800000e+02   3.2693330e-18   0.0000000e+00
   1.3500405e+00   5.1800000e+02   3.7851560e-18   0.0000000e+00
   1.3600408e+00   5.1800000e+02   4.3796510e-18   0.0000000e+00
   1.3700411e+00   5.1800000e+02   5.0644007e-18   0.0000000e+00
   1.3800414e+00   5.1800000e+02   5.8526318e-18   0.0000000e+00
   1.3900417e+00   5.1800000e+02   6.7594391e-18   0.0000000e+00
   1.4000420e+00   5.1800000e+02   7.8020394e-18   0.0000000e+00
   1.4100423e+00   5.1800000e+02   9.0000585e-18   0.0000000e+00
   1.4200426e+00   5.1800000e+02   1.0375855e-17   0.0000000e+00
   1.4300429e+00   5.1900000e+02   1.1954888e-17   0.0000000e+00
   1.4400432e+00   5.1900000e+02   1.3766128e-17   0.0000000e+00
   1.4500435e+00   5.1900000e+02   1.5842524e-17   0.0000000e+00
   1.4600438e+00   5.1900000e+02   1.8221531e-17   0.0000000e+00
   1.4700441e+00   5.2000000e+02   2.0945698e-17   0.0000000e+00
   1.4800444e+00   5.2100000e+02   2.4063339e-17   0.0000000e+00
   1.4900447e+00   5.2200000e+02   2.7629278e-17   0.0000000e+00
   1.5000450e+00   5.2300000e+02   3.1811741e-17   0.0000000e+00
   1.5100453e+00   5.2400000e+02   3.6606330e-17   0.0000000e+00
   1.5200456e+00   5.2400000e+02   4.2099539e-17   0.0000000e+00
   1.5300459e+00   5.2400000e+02   4.8389645e-17   0.0000000e+00
   1.5400462e+00   5.2400000e+02   5.5588246e-17   0.0000000e+00
   1.5500465e+00   5.2500000e+02   6.3822005e-17   0.0000000e+00
   1.5600468e+00   5.2600000e+02   7.3234606e-17   0.0000000e+00
   1.5700471e+00   5.2700000e+02   8.3988948e-17   0.0000000e+00
   1.5800474e+00   5.2800000e+02   9.6269625e-17   0.0000000e+00
   1.5900477e+00   5.3000000e+02   1.1028570e-16   0.0000000e+00
   1.6000480e+00   5.3200000e+02   1.2627382e-16   0.0000000e+00
   1.6100483e+00   5.3400000e+02   1.4450174e-16   0.0000000e+00
   1.6200486e+00   5.3600000e+02   1.6527222e-16   0.0000000e+00
   1.6300489e+00   5.3800000e+02   1.8892743e-16   0.0000000e+00
   1.6400492e+00   5.4000000e+02   2.1585393e-16   0.0000000e+00
   1.6500495e+00   5.4200000e+02   2.4648815e-16   0.0000000e+00
   1.6600498e+00   5.4300000e+02   2.8132258e-16   0.0000000e+00
   1.6700501e+00   5.4300000e+02   3.2091273e-16   0.0000000e+00
   1.6800504e+00   5.4400000e+02   3.6588484e-16   0.0000000e+00
   1.6900507e+00   5.4500000e+02   4.1694457e-16   0.0000000e+00
   1.7000510e+00   5.4700000e+02   4.7488664e-16   0.0000000e+00
   1.7100513e+00   5.4700000e+02   5.4060566e-16   0.0000000e+00
   1.7200516e+00   5.4800000e+02   6.1510818e-16   0.0000000e+00
   1.7300519e+00   5.4900000e+02   6.9952613e-16   0.0000000e+00
   1.7400522e+00   5.4900000e+02   7.9513188e-16   0.0000000e+00
   1.7500525e+00   5.4900000e+02   9.0335488e-16   0.0000000e+00
   1.7600528e+00   5.4900000e+02   1.0258004e-15   0.0000000e+00
   1.7700531e+00   5.4800000e+02   1.1642702e-15   0.0000000e+00
   1.7800534e+00   5.4700000e+02   1.3207856e-15   0.0000000e+00
   1.7900537e+00   5.4700000e+02   1.4976134e-15   0.0000000e+00
   1.8000540e+00   5.4700000e+02   1.6972941e-15   0.0000000e+00
   1.8100543e+00   5.4700000e+02   1.9226741e-15   0.0000000e+00
   1.8200546e+00   5.4700000e+02   2.1769406e-15   0.0000000e+00
   1.8300549e+00   5.4600000e+02   2.4636610e-15   0.0000000e+00
   1.8400552e+00   5.4500000e+02   2.7868266e-15   0.0000000e+00
   1.8500555e+00   5.4400000e+02   3.1509004e-15   0.0000000e+00
   1.8600558e+00   5.4400000e+02   3.5608711e-15   0.0000000e+00
   1.8700561e+00   5.4300000e+02   4.0223122e-15   0.0000000e+00
   1.8800564e+00   5.4300000e+02   4.5414481e-15   0.0000000e+00
   1.8900567e+00   5.4200000e+02   5.1252266e-15   0.0000000e+00
   1.9000570e+00   5.4100000e+02   5.7813995e-15   0.0000000e+00
   1.9100573e+00   5.4000000e+02   6.5186125e-15   0.0000000e+00
   1.9200576e+00   5.4000000e+02   7.3465032e-15   0.0000000e+00
   1.9300579e+00   5.3900000e+02   8.2758107e-15   0.0000000e+00
   1.9400582e+00   5.3900000e+02   9.3184961e-15   0.0000000e+00
   1.9500585e+00   5.3900000e+02   1.0487876e-14   0.0000000e+00
   1.9600588e+00   5.3700000e+02   1.1798769e-14   0.0000000e+00
   1.9700591e+00   5.3700000e+02   1.3267660e-14   0.0000000e+00
   1.9800594e+00   5.3600000e+02   1.4912876e-14   0.0000000e+00
   1.9900597e+00   5.3600000e+02   1.6754787e-14   0.0000000e+00
   2.0000600e+00   5.3600000e+02   1.8816024e-14   0.0000000e+00
   2.0100603e+00   5.3500000e+02   2.1121717e-14   0.0000000e+00
   2.0200606e+00   5.3400000e+02   2.3699759e-14   0.0000000e+00
   2.0300609e+00   5.3200000e+02   2.6581101e-14   0.0000000e+00
   2.0400612e+00   5.3100000e+02   2.9800069e-14   0.0000000e+00
   2.0500615e+00   5.2900000e+02   3.3394719e-14   0.0000000e+00
   2.0600618e+00   5.2900000e+02   3.7407221e-14   0.0000000e+00
   2.0700621e+00   5.2700000e+02   4.1884290e-14   0.0000000e+00
   2.0800624e+00   5.2700000e+02   4.6877652e-14   0.0000000e+00
   2.0900627e+00   5.2700000e+02   5.2444558e-14   0.0000000e+00
   2.1000630e+00   5.2600000e+02   5.8648349e-14   0.0000000e+00
   2.1100633e+00   5.2600000e+02   6.5559076e-14   0.0000000e+00
   2.1200636e+00   5.2600000e+02   7.3254180e-14   0.0000000e+00
   2.1300639e+00   5.2600000e+02   8.1819238e-14   0.0000000e+00
   2.1400642e+00   5.2600000e+02   9.1348781e-14   0.0000000e+00
   2.1500645e+00   5.2600000e+02   1.0194719e-13   0.0000000e+00
   2.1600648e+00   5.2600000e+02   1.1372966e-13   0.0000000e+00
   2.1700651e+00   5.2600000e+02   1.2682331e-13   0.0000000e+00
   2.1800654e+00   5.2700000e+02   1.4136834e-13   0.0000000e+00
   2.1900657e+00   5.2700000e+02   1.5751929e-13   0.0000000e+00
   2.2000660e+00   5.2700000e+02   1.7544649e-13   0.0000000e+00
   2.2100663e+00   5.2600000e+02   1.9533759e-13   0.0000000e+00
   2.2200666e+00   5.2600000e+02   2.1739919e-13   0.0000000e+00
   2.2300669e+00   5.2700000e+02   2.4185875e-13   0.0000000e+00
   2.2400672e+00   5.2700000e+02   2.6896656e-13   0.0000000e+00
   2.2500675e+00   5.2700000e+02   2.9899790e-13   0.0000000e+00
   2.2600678e+00   5.2800000e+02   3.3225547e-13   0.0000000e+00
   2.2700681e+00   5.2900000e+02   3.6907198e-13   0.0000000e+00
   2.2800684e+00   5.3000000e+02   4.0981299e-13   0.0000000e+00
   2.2900687e+00   5.3100000e+02   4.5487999e-13   0.0000000e+00
   2.3000690e+00   5.3200000e+02   5.0471379e-13   0.0000000e+00
   2.3100693e+00   5.3300000e+02   5.5979819e-13   0.0000000e+00
   2.3200696e+00   5.3400000e+02   6.2066395e-13   0.0000000e+00
   2.3300699e+00   5.3500000e+02   6.8789320e-13   0.0000000e+00
   2.3400702e+00   5.3500000e+02   7.6212412e-13   0.0000000e+00
   2.3500705e+00   5.3500000e+02   8.4405610e-13   0.0000000e+00
   2.3600708e+00   5.3500000e+02   9.3445535e-13   0.0000000e+00
   2.3700711e+00   5.3600000e+02   1.0341610e-12   0.0000000e+00
   2.3800714e+00   5.3500000e+02   1.1440916e-12   0.0000000e+00
   2.3900717e+00   5.3500000e+02   1.2652525e-12   0.0000000e+00
   2.4000720e+00   5.3500000e+02   1.3987435e-12   0.0000000e+00
   2.4100723e+00   5.3400000e+02   1.5457673e-12   0.0000000e+00
   2.4200726e+00   5.3300000e+02   1.7076386e-12   0.0000000e+00
   2.4300729e+00   5.3300000e+02   1.8857944e-12   0.0000000e+00
   2.4400732e+00   5.3200000e+02   2.0818043e-12   0.0000000e+00
   2.4500735e+00   5.3200000e+02   2.2973825e-12   0.0000000e+00
   2.4600738e+00   5.3200000e+02   2.5344005e-12   0.0000000e+00
   2.4700741e+00   5.3200000e+02   2.7949005e-12   0.0000000e+00
   2.4800744e+00   5.3200000e+02   3.0811105e-12   0.0000000e+00
   2.4900747e+00   5.3200000e+02   3.3954605e-12   0.0000000e+00
   2.5000750e+00   5.3200000e+02   3.7405994e-12   0.0000000e+00
   2.5100753e+00   5.3200000e+02   4.1194142e-12   0.0000000e+00
   2.5200756e+00   5.3200000e+02   4.5350503e-12   0.0000000e+00
   2.5300759e+00   5.3300000e+02   4.9909332e-12   0.0000000e+00
   2.5400762e+00   5.3300000e+02   5.4907925e-12   0.0000000e+00
   2.5500765e+00   5.3300000e+02   6.0386874e-12   0.0000000e+00
   2.5600768e+00   5.3300000e+02   6.6390343e-12   0.0000000e+00
   2.5700771e+00   5.3400000e+02   7.2966369e-12   0.0000000e+00
   2.5800774e+00   5.3400000e+02   8.0167181e-12   0.0000000e+00
   2.5900777e+00   5.3400000e+02   8.8049549e-12   0.0000000e+00
   2.6000780e+00   5.3400000e+02   9.6675161e-12   0.0000000e+00
   2.6100783e+00   5.3400000e+02   1.0611102e-11   0.0000000e+00
   2.6200786e+00   5.3400000e+02   1.1642989e-11   0.0000000e+00
   2.6300789e+00   5.3400000e+02   1.2771076e-11   0.0000000e+00
   2.6400792e+00   5.3400000e+02   1.4003933e-11   0.0000000e+00
   2.6500795e+00   5.3300000e+02   1.5350859e-11   0.0000000e+00
   2.6600798e+00   5.3200000e+02   1.6821938e-11   0.0000000e+00
   2.6700801e+00   5.3200000e+02   1.8428103e-11   0.0000000e+00
   2.6800804e+00   5.3200000e+02   2.0181201e-11   0.0000000e+00
   2.6900807e+00   5.3200000e+02   2.2094070e-11   0.0000000e+00
   2.7000810e+00   5.3100000e+02   2.4180614e-11   0.0000000e+00
   2.7100813e+00   5.3100000e+02   2.6455889e-11   0.0000000e+00
   2.7200816e+00   5.3100000e+02   2.8936191e-11   0.0000000e+00
   2.7300819e+00   5.3100000e+02   3.1639152e-11   0.0000000e+00
   2.7400822e+00   5.2900000e+02   3.4583850e-11   0.0000000e+00
   2.7500825e+00   5.2900000e+02   3.7790913e-11   0.0000000e+00
   2.7600828e+00   5.2800000e+02   4.1282642e-11   0.0000000e+00
   2.7700831e+00   5.2800000e+02   4.5083140e-11   0.0000000e+00
   2.7800834e+00   5.2700000e+02   4.9218447e-11   0.0000000e+00
   2.7900837e+00   5.2700000e+02   5.3716690e-11   0.0000000e+00
   2.8000840e+00   5.2600000e+02   5.8608239e-11   0.0000000e+00
   2.8100843e+00   5.2500000e+02   6.3925875e-11   0.0000000e+00
   2.8200846e+00   5.2400000e+02   6.9704974e-11   0.0000000e+00
   2.8300849e+00   5.2400000e+02   7.5983697e-11   0.0000000e+00
   2.8400852e+00   5.2400000e+02   8.2803200e-11   0.0000000e+00
   2.8500855e+00   5.2300000e+02   9.0207855e-11   0.0000000e+00
   2.8600858e+00   5.2200000e+02   9.8245485e-11   0.0000000e+00
   2.8700861e+00   5.2200000e+02   1.0696762e-10   0.0000000e+00
   2.8800864e+00   5.2200000e+02   1.1642976e-10   0.0000000e+00
   2.8900867e+00   5.2300000e+02   1.2669168e-10   0.0000000e+00
   2.9000870e+00   5.2200000e+02   1.3781772e-10   0.0000000e+00
   2.9100873e+00   5.2200000e+02   1.4987713e-10   0.0000000e+00
   2.9200876e+00   5.2200000e+02   1.6294441e-10   0.0000000e+00
   2.9300879e+00   5.2100000e+02   1.7709969e-10   0.0000000e+00
   2.9400882e+00   5.2100000e+02   1.9242914e-10   0.0000000e+00
   2.9500885e+00   5.2100000e+02   2.0902536e-10   0.0000000e+00
   2.9600888e+00   5.2100000e+02   2.2698790e-10   0.0000000e+00
   2.9700891e+00   5.2100000e+02   2.4642367e-10   0.0000000e+00
   2.9800894e+00   5.2100000e+02   2.6744753e-10   0.0000000e+00
   2.9900897e+00   5.2100000e+02   2.9018276e-10   0.0000000e+00
   3.0000900e+00   5.2100000e+02   3.1476173e-10   0.0000000e+00
   3.0100903e+00   5.2100000e+02   3.4132644e-10   0.0000000e+00
   3.0200906e+00   5.2100000e+02   3.7002927e-10   0.0000000e+00
   3.0300909e+00   5.2100000e+02   4.0103361e-10   0.0000000e+00
   3.0400912e+00   5.2100000e+02   4.3451463e-10   0.0000000e+00
   3.0500915e+00   5.2100000e+02   4.7066012e-10   0.0000000e+00
   3.0600918e+00   5.2100000e+02   5.0967127e-10   0.0000000e+00
   3.0700921e+00   5.2200000e+02   5.5176364e-10   0.0000000e+00
   3.0800924e+00   5.2100000e+02   5.9716804e-10   0.0000000e+00
   3.0900927e+00   5.2100000e+02   6.4613160e-10   0.0000000e+00
   3.1000930e+00   5.2100000e+02   6.9891885e-10   0.0000000e+00
   3.1100933e+00   5.2100000e+02   7.5581283e-10   0.0000000e+00
   3.1200936e+00   5.2000000e+02   8.1711629e-10   0.0000000e+00
   3.1300939e+00   5.1900000e+02   8.8315306e-10   0.0000000e+00
   3.1400942e+00   5.1900000e+02   9.5426930e-10   0.0000000e+00
   3.1500945e+00   5.1900000e+02   1.0308350e-09   0.0000000e+00
   3.1600948e+00   5.1700000e+02   1.1132456e-09   0.0000000e+00
   3.1700951e+00   5.1700000e+02   1.2019235e-09   0.0000000e+00
   3.1800954e+00   5.1700000e+02   1.2973196e-09   0.0000000e+00
   3.1900957e+00   5.1600000e+02   1.3999155e-09   0.0000000e+00
   3.2000960e+00   5.1600000e+02   1.5102253e-09   0.0000000e+00
   3.2100963e+00   5.1500000e+02   1.6287975e-09   0.0000000e+00
   3.2200966e+00   5.1500000e+02   1.7562171e-09   0.0000000e+00
   3.2300969e+00   5.1500000e+02   1.8931081e-09   0.0000000e+00
   3.2400972e+00   5.1500000e+02   2.0401359e-09   0.0000000e+00
   3.2500975e+00   5.1500000e+02   2.1980096e-09   0.0000000e+00
   3.2600978e+00   5.1500000e+02   2.3674849e-09   0.0000000e+00
   3.2700981e+00   5.1500000e+02   2.5493668e-09   0.0000000e+00
   3.2800984e+00   5.1500000e+02   2.7445126e-09   0.0000000e+00
   3.2900987e+00   5.1600000e+02   2.9538353e-09   0.0000000e+00
   3.3000990e+00   5.1500000e+02   3.1783067e-09   0.0000000e+00
   3.3100993e+00   5.1600000e+02   3.4189607e-09   0.0000000e+00
   3.3200996e+00   5.1600000e+02   3.6768975e-09   0.0000000e+00
   3.3300999e+00   5.1600000e+02   3.9532871e-09   0.0000000e+00
   3.3401002e+00   5.1600000e+02   4.2493739e-09   0.0000000e+00
   3.3501005e+00   5.1600000e+02   4.5664802e-09   0.0000000e+00
   3.3601008e+00   5.1700000e+02   4.9060117e-09   0.0000000e+00
   3.3701011e+00   5.1800000e+02   5.2694616e-09   0.0000000e+00
   3.3801014e+00   5.1800000e+02   5.6584161e-09   0.0000000e+00
   3.3901017e+00   5.1800000e+02   6.0745594e-09   0.0000000e+00
   3.4001020e+00   5.1800000e+02   6.5196796e-09   0.0000000e+00
   3.4101023e+00   5.1900000e+02   6.9956744e-09   0.0000000e+00
   3.4201026e+00   5.1900000e+02   7.5045572e-09   0.0000000e+00
   3.4301029e+00   5.1900000e+02   8.0484638e-09   0.0000000e+00
   3.4401032e+00   5.1900000e+02   8.6296591e-09   0.0000000e+00
   3.4501035e+00   5.1800000e+02   9.2505445e-09   0.0000000e+00
   3.4601038e+00   5.1800000e+02   9.9136650e-09   0.0000000e+00
   3.4701041e+00   5.1900000e+02   1.0621717e-08   0.0000000e+00
   3.4801044e+00   5.1900000e+02   1.1377559e-08   0.0000000e+00
   3.4901047e+00   5.1900000e+02   1.2184215e-08   0.0000000e+00
   3.5001050e+00   5.1900000e+02   1.3044888e-08   0.0000000e+00
   3.5101053e+00   5.2000000e+02   1.3962971e-08   0.0000000e+00
   3.5201056e+00   5.1900000e+02   1.4942051e-08   0.0000000e+00
   3.5301059e+00   5.2000000e+02   1.5985924e-08   0.0000000e+00
   3.5401062e+00   5.2000000e+02   1.7098606e-08   0.0000000e+00
   3.5501065e+00   5.2000000e+02   1.8284342e-08   0.0000000e+00
   3.5601068e+00   5.2000000e+02   1.9547620e-08   0.0000000e+00
   3.5701071e+00   5.2100000e+02   2.0893184e-08   0.0000000e+00
   3.5801074e+00   5.2100000e+02   2.2326044e-08   0.0000000e+00
   3.5901077e+00   5.2000000e+02   2.3851495e-08   0.0000000e+00
   3.6001080e+00   5.2000000e+02   2.5475125e-08   0.0000000e+00
   3.6101083e+00   5.2000000e+02   2.7202836e-08   0.0000000e+00
   3.6201086e+00   5.2000000e+02   2.9040856e-08   0.0000000e+00
   3.6301089e+00   5.2000000e+02   3.0995757e-08   0.0000000e+00
   3.6401092e+00   5.2000000e+02   3.3074472e-08   0.0000000e+00
   3.6501095e+00   5.2000000e+02   3.5284312e-08   0.0000000e+00
   3.6601098e+00   5.2000000e+02   3.7632986e-08   0.0000000e+00
   3.6701101e+00   5.1900000e+02   4.0128618e-08   0.0000000e+00
   3.6801104e+00   5.1900000e+02   4.2779770e-08   0.0000000e+00
   3.6901107e+00   5.1900000e+02   4.5595463e-08   0.0000000e+00
   3.7001110e+00   5.1900000e+02   4.8585196e-08   0.0000000e+00
   3.7101113e+00   5.1800000e+02   5.1758973e-08   0.0000000e+00
   3.7201116e+00   5.1800000e+02   5.5127323e-08   0.0000000e+00
   3.7301119e+00   5.1700000e+02   5.8701329e-08   0.0000000e+00
   3.7401122e+00   5.1600000e+02   6.2492648e-08   0.0000000e+00
   3.7501125e+00   5.1600000e+02   6.6513544e-08   0.0000000e+00
   3.7601128e+00   5.1600000e+02   7.0776913e-08   0.0000000e+00
   3.7701131e+00   5.1600000e+02   7.5296311e-08   0.0000000e+00
   3.7801134e+00   5.1600000e+02   8.0085986e-08   0.0000000e+00
   3.7901137e+00   5.1500000e+02   8.5160909e-08   0.0000000e+00
   3.8001140e+00   5.1500000e+02   9.0536805e-08   0.0000000e+00
   3.8101143e+00   5.1400000e+02   9.6230188e-08   0.0000000e+00
   3.8201146e+00   5.1400000e+02   1.0225840e-07   0.0000000e+00
   3.8301149e+00   5.1400000e+02   1.0863963e-07   0.0000000e+00
   3.8401152e+00   5.1300000e+02   1.1539299e-07   0.0000000e+00
   3.8501155e+00   5.1300000e+02   1.2253849e-07   0.0000000e+00
   3.8601158e+00   5.1300000e+02   1.3009716e-07   0.0000000e+00
   3.8701161e+00   5.1200000e+02   1.3809101e-07   0.0000000e+00
   3.8801164e+00   5.1200000e+02   1.4654314e-07   0.0000000e+00
   3.8901167e+00   5.1200000e+02   1.5547774e-07   0.0000000e+00
   3.9001170e+00   5.1200000e+02   1.6492017e-07   0.0000000e+00
   3.9101173e+00   5.1200000e+02   1.7489695e-07   0.0000000e+00
   3.9201176e+00   5.1200000e+02   1.8543591e-07   0.0000000e+00
   3.9301179e+00   5.1200000e+02   1.9656612e-07   0.0000000e+00
   3.9401182e+00   5.1200000e+02   2.0831804e-07   0.0000000e+00
   3.9501185e+00   5.1200000e+02   2.2072353e-07   0.0000000e+00
   3.9601188e+00   5.1200000e+02   2.3381591e-07   0.0000000e+00
   3.9701191e+00   5.1200000e+02   2.4763001e-07   0.0000000e+00
   3.9801194e+00   5.1200000e+02   2.6220227e-07   0.0000000e+00
   3.9901197e+00   5.1200000e+02   2.7757073e-07   0.0000000e+00
   4.0001200e+00   5.1200000e+02   2.9377516e-07   0.0000000e+00
   4.0101203e+00   5.1200000e+02   3.1085710e-07   0.0000000e+00
   4.0201206e+00   5.1300000e+02   3.2885991e-07   0.0000000e+00
   4.0301209e+00   5.1400000e+02   3.4782887e-07   0.0000000e+00
   4.0401212e+00   5.1500000e+02   3.6781122e-07   0.0000000e+00
   4.0501215e+00   5.1600000e+02   3.8885626e-07   0.0000000e+00
   4.0601218e+00   5.1700000e+02   4.1101539e-07   0.0000000e+00
   4.0701221e+00   5.1800000e+02   4.3434223e-07   0.0000000e+00
   4.0801224e+00   5.1800000e+02   4.5889265e-07   0.0000000e+00
   4.0901227e+00   5.1900000e+02   4.8472488e-07   0.0000000e+00
   4.1001230e+00   5.1900000e+02   5.1189961e-07   0.0000000e+00
   4.1101233e+00   5.1900000e+02   5.4048002e-07   0.0000000e+00
   4.1201236e+00   5.1900000e+02   5.7053189e-07   0.0000000e+00
   4.1301239e+00   5.2000000e+02   6.0212372e-07   0.0000000e+00
   4.1401242e+00   5.1900000e+02   6.3532676e-07   0.0000000e+00
   4.1501245e+00   5.2000000e+02   6.7021516e-07   0.0000000e+00
   4.1601248e+00   5.2000000e+02   7.0686601e-07   0.0000000e+00
   4.1701251e+00   5.2100000e+02   7.4535948e-07   0.0000000e+00
   4.1801254e+00   5.2100000e+02   7.8577887e-07   0.0000000e+00
   4.1901257e+00   5.2100000e+02   8.2821076e-07   0.0000000e+00
   4.2001260e+00   5.2200000e+02   8.7274506e-07   0.0000000e+00
   4.2101263e+00   5.2200000e+02   9.1947515e-07   0.0000000e+00
   4.2201266e+00   5.2200000e+02   9.6849796e-07   0.0000000e+00
   4.2301269e+00   5.2300000e+02   1.0199141e-06   0.0000000e+00
   4.2401272e+00   5.2400000e+02   1.0738279e-06   0.0000000e+00
   4.2501275e+00   5.2400000e+02   1.1303476e-06   0.0000000e+00
   4.2601278e+00   5.2400000e+02   1.1895854e-06   0.0000000e+00
   4.2701281e+00   5.2500000e+02   1.2516576e-06   0.0000000e+00
   4.2801284e+00   5.2600000e+02   1.3166848e-06   0.0000000e+00
   4.2901287e+00   5.2700000e+02   1.3847917e-06   0.0000000e+00
   4.3001290e+00   5.2700000e+02   1.4561077e-06   0.0000000e+00
   4.3101293e+00   5.2700000e+02   1.5307664e-06   0.0000000e+00
   4.3201296e+00   5.2800000e+02   1.6089063e-06   0.0000000e+00
   4.3301299e+00   5.2900000e+02   1.6906707e-06   0.0000000e+00
   4.3401302e+00   5.2900000e+02   1.7762076e-06   0.0000000e+00
   4.3501305e+00   5.3000000e+02   1.8656700e-06   0.0000000e+00
   4.3601308e+00   5.3100000e+02   1.9592161e-06   0.0000000e+00
   4.3701311e+00   5.3200000e+02   2.0570094e-06   0.0000000e+00
   4.3801314e+00   5.3300000e+02   2.1592185e-06   0.0000000e+00
   4.3901317e+00   5.3300000e+02   2.2660176e-06   0.0000000e+00
   4.4001320e+00   5.3400000e+02   2.3775864e-06   0.0000000e+00
   4.4101323e+00   5.3500000e+02   2.4941103e-06   0.0000000e+00
   4.4201326e+00   5.3600000e+02   2.6157805e-06   0.0000000e+00
   4.4301329e+00   5.3600000e+02   2.7427938e-06   0.0000000e+00
   4.4401332e+00   5.3700000e+02   2.8753534e-06   0.0000000e+00
   4.4501335e+00   5.3700000e+02   3.0136683e-06   0.0000000e+00
   4.4601338e+00   5.3800000e+02   3.1579537e-06   0.0000000e+00
   4.4701341e+00   5.3900000e+02   3.3084312e-06   0.0000000e+00
   4.4801344e+00   5.3900000e+02   3.4653286e-06   0.0000000e+00
   4.4901347e+00   5.3900000e+02   3.6288802e-06   0.0000000e+00
   4.5001350e+00   5.3900000e+02   3.7993269e-06   0.0000000e+00
   4.5101353e+00   5.4000000e+02   3.9769161e-06   0.0000000e+00
   4.5201356e+00   5.3900000e+02   4.1619020e-06   0.0000000e+00
   4.5301359e+00   5.4000000e+02   4.3545454e-06   0.0000000e+00
   4.5401362e+00   5.4000000e+02   4.5551140e-06   0.0000000e+00
   4.5501365e+00   5.4000000e+02   4.7638824e-06   0.0000000e+00
   4.5601368e+00   5.4000000e+02   4.9811319e-06   0.0000000e+00
   4.5701371e+00   5.4000000e+02   5.2071510e-06   0.0000000e+00
   4.5801374e+00   5.4000000e+02   5.4422350e-06   0.0000000e+00
   4.5901377e+00   5.4000000e+02   5.6866863e-06   0.0000000e+00
   4.6001380e+00   5.4000000e+02   5.9408142e-06   0.0000000e+00
   4.6101383e+00   5.3900000e+02   6.2049351e-06   0.0000000e+00
   4.6201386e+00   5.3900000e+02   6.4793723e-06   0.0000000e+00
   4.6301389e+00   5.3900000e+02   6.7644561e-06   0.0000000e+00
   4.6401392e+00   5.4000000e+02   7.0605238e-06   0.0000000e+00
   4.6501395e+00   5.3900000e+02   7.3679195e-06   0.0000000e+00
   4.6601398e+00   5.3900000e+02   7.6869942e-06   0.0000000e+00
   4.6701401e+00   5.3900000e+02   8.0181056e-06   0.0000000e+00
   4.6801404e+00   5.3800000e+02   8.3616181e-06   0.0000000e+00
   4.6901407e+00   5.3700000e+02   8.7179027e-06   0.0000000e+00
   4.7001410e+00   5.3800000e+02   9.0873366e-06   0.0000000e+00
   4.7101413e+00   5.3800000e+02   9.4703035e-06   0.0000000e+00
   4.7201416e+00   5.3700000e+02   9.8671931e-06   0.0000000e+00
   4.7301419e+00   5.3700000e+02   1.0278401e-05   0.0000000e+00
   4.7401422e+00   5.3700000e+02   1.0704329e-05   0.0000000e+00
   4.7501425e+00   5.3700000e+02   1.1145384e-05   0.0000000e+00
   4.7601428e+00   5.3700000e+02   1.1601978e-05   0.0000000e+00
   4.7701431e+00   5.3800000e+02   1.2074528e-05   0.0000000e+00
   4.7801434e+00   5.3700000e+02   1.2563456e-05   0.0000000e+00
   4.7901437e+00   5.3800000e+02   1.3069188e-05   0.0000000e+00
   4.8001440e+00   5.3800000e+02   1.3592155e-05   0.0000000e+00
   4.8101443e+00   5.3800000e+02   1.4132790e-05   0.0000000e+00
   4.8201446e+00   5.3700000e+02   1.4691530e-05   0.0000000e+00
   4.8301449e+00   5.3700000e+02   1.5268816e-05   0.0000000e+00
   4.8401452e+00   5.3700000e+02   1.5865089e-05   0.0000000e+00
   4.8501455e+00   5.3700000e+02   1.6480793e-05   0.0000000e+00
   4.8601458e+00   5.3700000e+02   1.7116374e-05   0.0000000e+00
   4.8701461e+00   5.3600000e+02   1.7772277e-05   0.0000000e+00
   4.8801464e+00   5.3600000e+02   1.8448949e-05   0.0000000e+00
   4.8901467e+00   5.3600000e+02   1.9146835e-05   0.0000000e+00
   4.9001470e+00   5.3600000e+02   1.9866379e-05   0.0000000e+00
   4.9101473e+00   5.3600000e+02   2.0608022e-05   0.0000000e+00
   4.9201476e+00   5.3600000e+02   2.1372205e-05   0.0000000e+00
   4.9301479e+00   5.3600000e+02   2.2159362e-05   0.0000000e+00
   4.9401482e+00   5.3600000e+02   2.2969926e-05   0.0000000e+00
   4.9501485e+00   5.3600000e+02   2.3804321e-05   0.0000000e+00
   4.9601488e+00   5.3600000e+02   2.4662968e-05   0.0000000e+00
   4.9701491e+00   5.3600000e+02   2.5546278e-05   0.0000000e+00
   4.9801494e+00   5.3600000e+02   2.6454654e-05   0.0000000e+00
   4.9901497e+00   5.3600000e+02   2.7388492e-05   0.0000000e+00
   5.0001500e+00   5.3500000e+02   2.8348173e-05   0.0000000e+00
   5.0101503e+00   5.3500000e+02   2.9334071e-05   0.0000000e+00
   5.0201506e+00   5.3500000e+02   3.0346541e-05   0.0000000e+00
   5.0301509e+00   5.3500000e+02   3.1385929e-05   0.0000000e+00
   5.0401512e+00   5.3500000e+02   3.2452562e-05   0.0000000e+00
   5.0501515e+00   5.3400000e+02   3.3546750e-05   0.0000000e+00
   5.0601518e+00   5.3400000e+02   3.4668784e-05   0.0000000e+00
   5.0701521e+00   5.3400000e+02   3.5818934e-05   0.0000000e+00
   5.0801524e+00   5.3400000e+02   3.6997449e-05   0.0000000e+00
   5.0901527e+00   5.3400000e+02   3.8204554e-05   0.0000000e+00
   5.1001530e+00   5.3400000e+02   3.9440446e-05   0.0000000e+00
   5.1101533e+00   5.3400000e+02   4.0705298e-05   0.0000000e+00
   5.1201536e+00   5.3400000e+02   4.1999251e-05   0.0000000e+00
   5.1301539e+00   5.3300000e+02   4.3322414e-05   0.0000000e+00
   5.1401542e+00   5.3300000e+02   4.4674864e-05   0.0000000e+00
   5.1501545e+00   5.3400000e+02   4.6056643e-05   0.0000000e+00
   5.1601548e+00   5.3300000e+02   4.7467752e-05   0.0000000e+00
   5.1701551e+00   5.3300000e+02   4.8908154e-05   0.0000000e+00
   5.1801554e+00   5.3300000e+02   5.0377769e-05   0.0000000e+00
   5.1901557e+00   5.3200000e+02   5.1876471e-05   0.0000000e+00
   5.2001560e+00   5.3200000e+02   5.3404087e-05   0.0000000e+00
   5.2101563e+00   5.3200000e+02   5.4960394e-05   0.0000000e+00
   5.2201566e+00   5.3200000e+02   5.6545115e-05   0.0000000e+00
   5.2301569e+00   5.3200000e+02   5.8157919e-05   0.0000000e+00
   5.2401572e+00   5.3200000e+02   5.9798415e-05   0.0000000e+00
   5.2501575e+00   5.3200000e+02   6.1466149e-05   0.0000000e+00
   5.2601578e+00   5.3100000e+02   6.3160606e-05   0.0000000e+00
   5.2701581e+00   5.3100000e+02   6.4881201e-05   0.0000000e+00
   5.2801584e+00   5.3100000e+02   6.6627278e-05   0.0000000e+00
   5.2901587e+00   5.3100000e+02   6.8398107e-05   0.0000000e+00
   5.3001590e+00   5.3100000e+02   7.0192881e-05   0.0000000e+00
   5.3101593e+00   5.3100000e+02   7.2010712e-05   0.0000000e+00
   5.3201596e+00   5.3100000e+02   7.3850626e-05   0.0000000e+00
   5.3301599e+00   5.3100000e+02   7.5711564e-05   0.0000000e+00
   5.3401602e+00   5.3100000e+02   7.7592371e-05   0.0000000e+00
   5.3501605e+00   5.3100000e+02   7.9491801e-05   0.0000000e+00
   5.3601608e+00   5.3100000e+02   8.1408505e-05   0.0000000e+00
   5.3701611e+00   5.3100000e+02   8.3341032e-05   0.0000000e+00
   5.3801614e+00   5.3100000e+02   8.5287823e-05   0.0000000e+00
   5.3901617e+00   5.3100000e+02   8.7247210e-05   0.0000000e+00
   5.4001620e+00   5.3100000e+02   8.9217406e-05   0.0000000e+00
   5.4101623e+00   5.3000000e+02   9.1196506e-05   0.0000000e+00
   5.4201626e+00   5.3100000e+02   9.3182482e-05   0.0000000e+00
   5.4301629e+00   5.3100000e+02   9.5173175e-05   0.0000000e+00
   5.4401632e+00   5.3100000e+02   9.7166295e-05   0.0000000e+00
   5.4501635e+00   5.3100000e+02   9.9159415e-05   0.0000000e+00
   5.4601638e+00   5.3100000e+02   1.0114997e-04   0.0000000e+00
   5.4701641e+00   5.3100000e+02   1.0313523e-04   0.0000000e+00
   5.4801644e+00   5.3200000e+02   1.0511234e-04   0.0000000e+00
   5.4901647e+00   5.3200000e+02   1.0707827e-04   0.0000000e+00
   5.5001650e+00   5.3300000e+02   1.0902985e-04   0.0000000e+00
   5.5101653e+00   5.3400000e+02   1.1096372e-04   0.0000000e+00
   5.5201656e+00   5.3500000e+02   1.1287636e-04   0.0000000e+00
   5.5301659e+00   5.3600000e+02   1.1476409e-04   0.0000000e+00
   5.5401662e+00   5.3700000e+02   1.1662302e-04   0.0000000e+00
   5.5501665e+00   5.3900000e+02   1.1844910e-04   0.0000000e+00
   5.5601668e+00   5.3900000e+02   1.2023808e-04   0.0000000e+00
   5.5701671e+00   5.4000000e+02   1.2198553e-04   0.0000000e+00
   5.5801674e+00   5.4100000e+02   1.2368680e-04   0.0000000e+00
   5.5901677e+00   5.4200000e+02   1.2533704e-04   0.0000000e+00
   5.6001680e+00   5.4200000e+02   1.2693121e-04   0.0000000e+00
   5.6101683e+00   5.4300000e+02   1.2846404e-04   0.0000000e+00
   5.6201686e+00   5.4300000e+02   1.2993004e-04   0.0000000e+00
   5.6301689e+00   5.4300000e+02   1.3132349e-04   0.0000000e+00
   5.6401692e+00   5.4200000e+02   1.3263848e-04   0.0000000e+00
   5.6501695e+00   5.4100000e+02   1.3386882e-04   0.0000000e+00
   5.6601698e+00   5.4000000e+02   1.3500811e-04   0.0000000e+00
   5.6701701e+00   5.3900000e+02   1.3604970e-04   0.0000000e+00
   5.6801704e+00   5.3700000e+02   1.3698670e-04   0.0000000e+00
   5.6901707e+00   5.3500000e+02   1.3781196e-04   0.0000000e+00
   5.7001710e+00   5.3400000e+02   1.3851809e-04   0.0000000e+00
   5.7101713e+00   5.3200000e+02   1.3909742e-04   0.0000000e+00
   5.7201716e+00   5.3000000e+02   1.3954204e-04   0.0000000e+00
   5.7301719e+00   5.2800000e+02   1.3984375e-04   0.0000000e+00
   5.7401722e+00   5.2600000e+02   1.3999411e-04   0.0000000e+00
   5.7501725e+00   5.2400000e+02   1.3998438e-04   0.0000000e+00
   5.7601728e+00   5.2200000e+02   1.3980556e-04   0.0000000e+00
   5.7701731e+00   5.2000000e+02   1.3944836e-04   0.0000000e+00
   5.7801734e+00   5.1900000e+02   1.3890322e-04   0.0000000e+00
   5.7901737e+00   5.1700000e+02   1.3816027e-04   0.0000000e+00
   5.8001740e+00   5.1500000e+02   1.3720938e-04   0.0000000e+00
   5.8101743e+00   5.1400000e+02   1.3604012e-04   0.0000000e+00
   5.8201746e+00   5.1200000e+02   1.3464176e-04   0.0000000e+00
   5.8301749e+00   5.1100000e+02   1.3300329e-04   0.0000000e+00
   5.8401752e+00   5.1000000e+02   1.3111341e-04   0.0000000e+00
   5.8501755e+00   5.0900000e+02   1.2896050e-04   0.0000000e+00
   5.8601758e+00   5.0800000e+02   1.2653268e-04   0.0000000e+00
   5.8701761e+00   5.0700000e+02   1.2381774e-04   0.0000000e+00
   5.8801764e+00   5.0600000e+02   1.2080320e-04   0.0000000e+00
   5.8901767e+00   5.0500000e+02   1.1747626e-04   0.0000000e+00
   5.9001770e+00   5.0400000e+02   1.1382386e-04   0.0000000e+00
   5.9101773e+00   5.0100000e+02   1.0983263e-04   0.0000000e+00
   5.9201776e+00   4.9900000e+02   1.0548889e-04   0.0000000e+00
   5.9301779e+00   4.9800000e+02   1.0077871e-04   0.0000000e+00
   5.9401782e+00   4.9600000e+02   9.5687859e-05   0.0000000e+00
   5.9501785e+00   4.9300000e+02   9.0201813e-05   0.0000000e+00
   5.9601788e+00   4.9100000e+02   8.4305787e-05   0.0000000e+00
   5.9701791e+00   4.8900000e+02   7.7984717e-05   0.0000000e+00
   5.9801794e+00   4.8700000e+02   7.1223274e-05   0.0000000e+00
   5.9901797e+00   4.8400000e+02   6.4005867e-05   0.0000000e+00
   6.0001800e+00   4.8200000e+02   5.6316650e-05   0.0000000e+00
   6.0101803e+00   4.8000000e+02   4.8139529e-05   0.0000000e+00
   6.0201806e+00   4.7800000e+02   3.9458171e-05   0.0000000e+00
   6.0301809e+00   4.7600000e+02   3.0256011e-05   0.0000000e+00
   6.0401812e+00   4.7400000e+02   2.0516262e-05   0.0000000e+00
   6.0501815e+00   4.7200000e+02   1.0221925e-05   0.0000000e+00
   6.0601818e+00   4.7100000e+02  -6.4419811e-07   0.0000000e+00
   6.0701821e+00   4.6900000e+02  -1.2099498e-05   0.0000000e+00
   6.0801824e+00   4.6800000e+02  -2.4161542e-05   0.0000000e+00
   6.0901827e+00   4.6700000e+02  -3.6848059e-05   0.0000000e+00
   6.1001830e+00   4.6500000e+02  -5.0176931e-05   0.0000000e+00
   6.1101833e+00   4.6400000e+02  -6.4166171e-05   0.0000000e+00
   6.1201836e+00   4.6300000e+02  -7.8833914e-05   0.0000000e+00
   6.1301839e+00   4.6200000e+02  -9.4198396e-05   0.0000000e+00
   6.1401842e+00   4.6000000e+02  -1.1027794e-04   0.0000000e+00
   6.1501845e+00   4.5900000e+02  -1.2709092e-04   0.0000000e+00
   6.1601848e+00   4.5900000e+02  -1.4465577e-04   0.0000000e+00
   6.1701851e+00   4.5700000e+02  -1.6299096e-04   0.0000000e+00
   6.1801854e+00   4.5700000e+02  -1.8211493e-04   0.0000000e+00
   6.1901857e+00   4.5700000e+02  -2.0204611e-04   0.0000000e+00
   6.2001860e+00   4.5700000e+02  -2.2280292e-04   0.0000000e+00
   6.2101863e+00   4.5700000e+02  -2.4440366e-04   0.0000000e+00
   6.2201866e+00   4.5700000e+02  -2.6686656e-04   0.0000000e+00
   6.2301869e+00   4.5700000e+02  -2.9020973e-04   0.0000000e+00
   6.2401872e+00   4.5700000e+02  -3.1445112e-04   0.0000000e+00
   6.2501875e+00   4.5700000e+02  -3.3960850e-04   0.0000000e+00
   6.2601878e+00   4.5700000e+02  -3.6569942e-04   0.0000000e+00
   6.2701881e+00   4.5800000e+02  -3.9274119e-04   0.0000000e+00
   6.2801884e+00   4.5800000e+02  -4.2075085e-04   0.0000000e+00
   6.2901887e+00   4.5800000e+02  -4.4974513e-04   0.0000000e+00
   6.3001890e+00   4.5900000e+02  -4.7974038e-04   0.0000000e+00
   6.3101893e+00   4.5900000e+02  -5.1075259e-04   0.0000000e+00
   6.3201896e+00   4.5900000e+02  -5.4279733e-04   0.0000000e+00
   6.3301899e+00   4.6000000e+02  -5.7588969e-04   0.0000000e+00
   6.3401902e+00   4.6000000e+02  -6.1004425e-04   0.0000000e+00
   6.3501905e+00   4.6100000e+02  -6.4527507e-04   0.0000000e+00
   6.3601908e+00   4.6100000e+02  -6.8159559e-04   0.0000000e+00
   6.3701911e+00   4.6200000e+02  -7.1901863e-04   0.0000000e+00
   6.3801914e+00   4.6200000e+02  -7.5755631e-04   0.0000000e+00
   6.3901917e+00   4.6300000e+02  -7.9722005e-04   0.0000000e+00
   6.4001920e+00   4.6300000e+02  -8.3802045e-04   0.0000000e+00
   6.4101923e+00   4.6400000e+02  -8.7996733e-04   0.0000000e+00
   6.4201926e+00   4.6400000e+02  -9.2306957e-04   0.0000000e+00
   6.4301929e+00   4.6500000e+02  -9.6733518e-04   0.0000000e+00
   6.4401932e+00   4.6600000e+02  -1.0127711e-03   0.0000000e+00
   6.4501935e+00   4.6700000e+02  -1.0593834e-03   0.0000000e+00
   6.4601938e+00   4.6700000e+02  -1.1071768e-03   0.0000000e+00
   6.4701941e+00   4.6700000e+02  -1.1561551e-03   0.0000000e+00
   6.4801944e+00   4.6700000e+02  -1.2063206e-03   0.0000000e+00
   6.4901947e+00   4.6800000e+02  -1.2576747e-03   0.0000000e+00
   6.5001950e+00   4.6900000e+02  -1.3102172e-03   0.0000000e+00
   6.5101953e+00   4.6900000e+02  -1.3639466e-03   0.0000000e+00
   6.5201956e+00   4.7000000e+02  -1.4188598e-03   0.0000000e+00
   6.5301959e+00   4.7000000e+02  -1.4749524e-03   0.0000000e+00
   6.5401962e+00   4.7100000e+02  -1.5322181e-03   0.0000000e+00
   6.5501965e+00   4.7200000e+02  -1.5906493e-03   0.0000000e+00
   6.5601968e+00   4.7200000e+02  -1.6502365e-03   0.0000000e+00
   6.5701971e+00   4.7300000e+02  -1.7109683e-03   0.0000000e+00
   6.5801974e+00   4.7300000e+02  -1.7728315e-03   0.0000000e+00
   6.5901977e+00   4.7400000e+02  -1.8358111e-03   0.0000000e+00
   6.6001980e+00   4.7500000e+02  -1.8998900e-03   0.0000000e+00
   6.6101983e+00   4.7500000e+02  -1.9650489e-03   0.0000000e+00
   6.6201986e+00   4.7500000e+02  -2.0312666e-03   0.0000000e+00
   6.6301989e+00   4.7600000e+02  -2.0985194e-03   0.0000000e+00
   6.6401992e+00   4.7600000e+02  -2.1667815e-03   0.0000000e+00
   6.6501995e+00   4.7600000e+02  -2.2360247e-03   0.0000000e+00
   6.6601998e+00   4.7800000e+02  -2.3062183e-03   0.0000000e+00
   6.6702001e+00   4.7800000e+02  -2.3773290e-03   0.0000000e+00
   6.6802004e+00   4.7900000e+02  -2.4493212e-03   0.0000000e+00
   6.6902007e+00   4.8000000e+02  -2.5221563e-03   0.0000000e+00
   6.7002010e+00   4.8000000e+02  -2.5957930e-03   0.0000000e+00
   6.7102013e+00   4.8100000e+02  -2.6701875e-03   0.0000000e+00
   6.7202016e+00   4.8100000e+02  -2.7452927e-03   0.0000000e+00
   6.7302019e+00   4.8200000e+02  -2.8210588e-03   0.0000000e+00
   6.7402022e+00   4.8300000e+02  -2.8974328e-03   0.0000000e+00
   6.7502025e+00   4.8300000e+02  -2.9743586e-03   0.0000000e+00
   6.7602028e+00   4.8400000e+02  -3.0517770e-03   0.0000000e+00
   6.7702031e+00   4.8500000e+02  -3.1296254e-03   0.0000000e+00
   6.7802034e+00   4.8600000e+02  -3.2078381e-03   0.0000000e+00
   6.7902037e+00   4.8700000e+02  -3.2863458e-03   0.0000000e+00
   6.8002040e+00   4.8800000e+02  -3.3650756e-03   0.0000000e+00
   6.8102043e+00   4.8900000e+02  -3.4439513e-03   0.0000000e+00
   6.8202046e+00   4.9000000e+02  -3.5228931e-03   0.0000000e+00
   6.8302049e+00   4.9100000e+02  -3.6018173e-03   0.0000000e+00
   6.8402052e+00   4.9100000e+02  -3.6806366e-03   0.0000000e+00
   6.8502055e+00   4.9200000e+02  -3.7592598e-03   0.0000000e+00
   6.8602058e+00   4.9200000e+02  -3.8375921e-03   0.0000000e+00
   6.8702061e+00   4.9300000e+02  -3.9155343e-03   0.0000000e+00
   6.8802064e+00   4.9400000e+02  -3.9929837e-03   0.0000000e+00
   6.8902067e+00   4.9500000e+02  -4.0698333e-03   0.0000000e+00
   6.9002070e+00   4.9500000e+02  -4.1459721e-03   0.0000000e+00
   6.9102073e+00   4.9500000e+02  -4.2212848e-03   0.0000000e+00
   6.9202076e+00   4.9600000e+02  -4.2956521e-03   0.0000000e+00
   6.9302079e+00   4.9700000e+02  -4.3689504e-03   0.0000000e+00
   6.9402082e+00   4.9800000e+02  -4.4410519e-03   0.0000000e+00
   6.9502085e+00   4.9800000e+02  -4.5118245e-03   0.0000000e+00
   6.9602088e+00   4.9900000e+02  -4.5811315e-03   0.0000000e+00
   6.9702091e+00   5.0000000e+02  -4.6488323e-03   0.0000000e+00
   6.9802094e+00   5.0000000e+02  -4.7147815e-03   0.0000000e+00
   6.9902097e+00   5.0200000e+02  -4.7788294e-03   0.0000000e+00
   7.0002100e+00   5.0200000e+02  -4.8408220e-03   0.0000000e+00
   7.0102103e+00   5.0300000e+02  -4.9006008e-03   0.0000000e+00
   7.0202106e+00   5.0400000e+02  -4.9580028e-03   0.0000000e+00
   7.0302109e+00   5.0400000e+02  -5.0128606e-03   0.0000000e+00
   7.0402112e+00   5.0500000e+02  -5.0650022e-03   0.0000000e+00
   7.0502115e+00   5.0500000e+02  -5.1142515e-03   0.0000000e+00
   7.0602118e+00   5.0600000e+02  -5.1604276e-03   0.0000000e+00
   7.0702121e+00   5.0700000e+02  -5.2033456e-03   0.0000000e+00
   7.0802124e+00   5.0700000e+02  -5.2428157e-03   0.0000000e+00
   7.0902127e+00   5.0800000e+02  -5.2786442e-03   0.0000000e+00
   7.1002130e+00   5.0800000e+02  -5.3106330e-03   0.0000000e+00
   7.1102133e+00   5.0800000e+02  -5.3385795e-03   0.0000000e+00
   7.1202136e+00   5.0800000e+02  -5.3622772e-03   0.0000000e+00
   7.1302139e+00   5.0800000e+02  -5.3815152e-03   0.0000000e+00
   7.1402142e+00   5.0900000e+02  -5.3960787e-03   0.0000000e+00
   7.1502145e+00   5.0900000e+02  -5.4057488e-03   0.0000000e+00
   7.1602148e+00   5.1000000e+02  -5.4103027e-03   0.0000000e+00
   7.1702151e+00   5.1000000e+02  -5.4095136e-03   0.0000000e+00
   7.1802154e+00   5.1100000e+02  -5.4031511e-03   0.0000000e+00
   7.1902157e+00   5.1100000e+02  -5.3909813e-03   0.0000000e+00
   7.2002160e+00   5.1100000e+02  -5.3727665e-03   0.0000000e+00
   7.2102163e+00   5.1100000e+02  -5.3482657e-03   0.0000000e+00
   7.2202166e+00   5.1100000e+02  -5.3172347e-03   0.0000000e+00
   7.2302169e+00   5.1100000e+02  -5.2794260e-03   0.0000000e+00
   7.2402172e+00   5.1000000e+02  -5.2345894e-03   0.0000000e+00
   7.2502175e+00   5.1000000e+02  -5.1824714e-03   0.0000000e+00
   7.2602178e+00   5.0900000e+02  -5.1228164e-03   0.0000000e+00
   7.2702181e+00   5.0800000e+02  -5.0553660e-03   0.0000000e+00
   7.2802184e+00   5.0800000e+02  -4.9798595e-03   0.0000000e+00
   7.2902187e+00   5.0800000e+02  -4.8960342e-03   0.0000000e+00
   7.3002190e+00   5.0700000e+02  -4.8036256e-03   0.0000000e+00
   7.3102193e+00   5.0700000e+02  -4.7023673e-03   0.0000000e+00
   7.3202196e+00   5.0600000e+02  -4.5919917e-03   0.0000000e+00
   7.3302199e+00   5.0500000e+02  -4.4722299e-03   0.0000000e+00
   7.3402202e+00   5.0400000e+02  -4.3428121e-03   0.0000000e+00
   7.3502205e+00   5.0300000e+02  -4.2034678e-03   0.0000000e+00
   7.3602208e+00   5.0300000e+02  -4.0539260e-03   0.0000000e+00
   7.3702211e+00   5.0200000e+02  -3.8939158e-03   0.0000000e+00
   7.3802214e+00   5.0200000e+02  -3.7231663e-03   0.0000000e+00
   7.3902217e+00   5.0100000e+02  -3.5414071e-03   0.0000000e+00
   7.4002220e+00   5.0100000e+02  -3.3483686e-03   0.0000000e+00
   7.4102223e+00   5.0000000e+02  -3.1437825e-03   0.0000000e+00
   7.4202226e+00   5.0000000e+02  -2.9273818e-03   0.0000000e+00
   7.4302229e+00   5.0000000e+02  -2.6989013e-03   0.0000000e+00
   7.4402232e+00   5.0100000e+02  -2.4580781e-03   0.0000000e+00
   7.4502235e+00   5.0100000e+02  -2.2046518e-03   0.0000000e+00
   7.4602238e+00   5.0200000e+02  -1.9383649e-03   0.0000000e+00
   7.4702241e+00   5.0200000e+02  -1.6589634e-03   0.0000000e+00
   7.4802244e+00   5.0200000e+02  -1.3661970e-03   0.0000000e+00
   7.4902247e+00   5.0300000e+02  -1.0598194e-03   0.0000000e+00
   7.5002250e+00   5.0400000e+02  -7.3958930e-04   0.0000000e+00
   7.5102253e+00   5.0400000e+02  -4.0527008e-04   0.0000000e+00
   7.5202256e+00   5.0400000e+02  -5.6630839e-05   0.0000000e+00
   7.5302259e+00   5.0500000e+02   3.0655341e-04   0.0000000e+00
   7.5402262e+00   5.0500000e+02   6.8450116e-04   0.0000000e+00
   7.5502265e+00   5.0500000e+02   1.0774240e-03   0.0000000e+00
   7.5602268e+00   5.0500000e+02   1.4855260e-03   0.0000000e+00
   7.5702271e+00   5.0500000e+02   1.9090034e-03   0.0000000e+00
   7.5802274e+00   5.0600000e+02   2.3480439e-03   0.0000000e+00
   7.5902277e+00   5.0700000e+02   2.8028261e-03   0.0000000e+00
   7.6002280e+00   5.0700000e+02   3.2735192e-03   0.0000000e+00
   7.6102283e+00   5.0700000e+02   3.7602823e-03   0.0000000e+00
   7.6202286e+00   5.0800000e+02   4.2632638e-03   0.0000000e+00
   7.6302289e+00   5.0800000e+02   4.7826008e-03   0.0000000e+00
   7.6402292e+00   5.0800000e+02   5.3184189e-03   0.0000000e+00
   7.6502295e+00   5.0800000e+02   5.8708310e-03   0.0000000e+00
   7.6602298e+00   5.0900000e+02   6.4399373e-03   0.0000000e+00
   7.6702301e+00   5.0900000e+02   7.0258242e-03   0.0000000e+00
   7.6802304e+00   5.0900000e+02   7.6285642e-03   0.0000000e+00
   7.6902307e+00   5.0800000e+02   8.2482149e-03   0.0000000e+00
   7.7002310e+00   5.0900000e+02   8.8848183e-03   0.0000000e+00
   7.7102313e+00   5.0900000e+02   9.5384008e-03   0.0000000e+00
   7.7202316e+00   5.0900000e+02   1.0208972e-02   0.0000000e+00
   7.7302319e+00   5.0900000e+02   1.0896524e-02   0.0000000e+00
   7.7402322e+00   5.1000000e+02   1.1601031e-02   0.0000000e+00
   7.7502325e+00   5.1000000e+02   1.2322449e-02   0.0000000e+00
   7.7602328e+00   5.1000000e+02   1.3060715e-02   0.0000000e+00
   7.7702331e+00   5.1000000e+02   1.3815745e-02   0.0000000e+00
   7.7802334e+00   5.1000000e+02   1.4587436e-02   0.0000000e+00
   7.7902337e+00   5.1000000e+02   1.5375663e-02   0.0000000e+00
   7.8002340e+00   5.1100000e+02   1.6180279e-02   0.0000000e+00
   7.8102343e+00   5.1100000e+02   1.7001116e-02   0.0000000e+00
   7.8202346e+00   5.1100000e+02   1.7837980e-02   0.0000000e+00
   7.8302349e+00   5.1100000e+02   1.8690658e-02   0.0000000e+00
   7.8402352e+00   5.1100000e+02   1.9558907e-02   0.0000000e+00
   7.8502355e+00   5.1100000e+02   2.0442464e-02   0.0000000e+00
   7.8602358e+00   5.1100000e+02   2.1341037e-02   0.0000000e+00
   7.8702361e+00   5.1100000e+02   2.2254310e-02   0.0000000e+00
   7.8802364e+00   5.1100000e+02   2.3181938e-02   0.0000000e+00
   7.8902367e+00   5.1100000e+02   2.4123551e-02   0.0000000e+00
   7.9002370e+00   5.1100000e+02   2.5078749e-02   0.0000000e+00
   7.9102373e+00   5.1100000e+02   2.6047105e-02   0.0000000e+00
   7.9202376e+00   5.1000000e+02   2.7028160e-02   0.0000000e+00
   7.9302379e+00   5.1000000e+02   2.8021428e-02   0.0000000e+00
   7.9402382e+00   5.1000000e+02   2.9026392e-02   0.0000000e+00
   7.9502385e+00   5.1000000e+02   3.0042503e-02   0.0000000e+00
   7.9602388e+00   5.1000000e+02   3.1069182e-02   0.0000000e+00
   7.9702391e+00   5.1000000e+02   3.2105817e-02   0.0000000e+00
   7.9802394e+00   5.0900000e+02   3.3151763e-02   0.0000000e+00
   7.9902397e+00   5.0900000e+02   3.4206345e-02   0.0000000e+00
   8.0002400e+00   5.0900000e+02   3.5268850e-02   0.0000000e+00
   8.0102403e+00   5.0900000e+02   3.6338535e-02   0.0000000e+00
   8.0202406e+00   5.1000000e+02   3.7414622e-02   0.0000000e+00
   8.0302409e+00   5.1000000e+02   3.8496297e-02   0.0000000e+00
   8.0402412e+00   5.1000000e+02   3.9582712e-02   0.0000000e+00
   8.0502415e+00   5.1000000e+02   4.0672984e-02   0.0000000e+00
   8.0602418e+00   5.1100000e+02   4.1766193e-02   0.0000000e+00
   8.0702421e+00   5.1100000e+02   4.2861384e-02   0.0000000e+00
   8.0802424e+00   5.1100000e+02   4.3957565e-02   0.0000000e+00
   8.0902427e+00   5.1000000e+02   4.5053710e-02   0.0000000e+00
   8.1002430e+00   5.1100000e+02   4.6148752e-02   0.0000000e+00
   8.1102433e+00   5.1000000e+02   4.7241591e-02   0.0000000e+00
   8.1202436e+00   5.1100000e+02   4.8331087e-02   0.0000000e+00
   8.1302439e+00   5.1000000e+02   4.9416067e-02   0.0000000e+00
   8.1402442e+00   5.1100000e+02   5.0495316e-02   0.0000000e+00
   8.1502445e+00   5.1000000e+02   5.1567585e-02   0.0000000e+00
   8.1602448e+00   5.1000000e+02   5.2631587e-02   0.0000000e+00
   8.1702451e+00   5.1000000e+02   5.3685998e-02   0.0000000e+00
   8.1802454e+00   5.1100000e+02   5.4729456e-02   0.0000000e+00
   8.1902457e+00   5.1100000e+02   5.5760563e-02   0.0000000e+00
   8.2002460e+00   5.1000000e+02   5.6777884e-02   0.0000000e+00
   8.2102463e+00   5.1000000e+02   5.7779949e-02   0.0000000e+00
   8.2202466e+00   5.1000000e+02   5.8765249e-02   0.0000000e+00
   8.2302469e+00   5.0900000e+02   5.9732242e-02   0.0000000e+00
   8.2402472e+00   5.0900000e+02   6.0679347e-02   0.0000000e+00
   8.2502475e+00   5.1000000e+02   6.1604952e-02   0.0000000e+00
   8.2602478e+00   5.1000000e+02   6.2507406e-02   0.0000000e+00
   8.2702481e+00   5.1000000e+02   6.3385028e-02   0.0000000e+00
   8.2802484e+00   5.1000000e+02   6.4236100e-02   0.0000000e+00
   8.2902487e+00   5.1000000e+02   6.5058874e-02   0.0000000e+00
   8.3002490e+00   5.1000000e+02   6.5851567e-02   0.0000000e+00
   8.3102493e+00   5.1000000e+02   6.6612368e-02   0.0000000e+00
   8.3202496e+00   5.1000000e+02   6.7339430e-02   0.0000000e+00
   8.3302499e+00   5.1000000e+02   6.8030882e-02   0.0000000e+00
   8.3402502e+00   5.1000000e+02   6.8684820e-02   0.0000000e+00
   8.3502505e+00   5.1000000e+02   6.9299314e-02   0.0000000e+00
   8.3602508e+00   5.1000000e+02   6.9872405e-02   0.0000000e+00
   8.3702511e+00   5.1100000e+02   7.0402112e-02   0.0000000e+00
   8.3802514e+00   5.1100000e+02   7.0886425e-02   0.0000000e+00
   8.3902517e+00   5.1000000e+02   7.1323313e-02   0.0000000e+00
   8.4002520e+00   5.1100000e+02   7.1710723e-02   0.0000000e+00
   8.4102523e+00   5.1100000e+02   7.2046581e-02   0.0000000e+00
   8.4202526e+00   5.1200000e+02   7.2328791e-02   0.0000000e+00
   8.4302529e+00   5.1200000e+02   7.2555243e-02   0.0000000e+00
   8.4402532e+00   5.1200000e+02   7.2723809e-02   0.0000000e+00
   8.4502535e+00   5.1100000e+02   7.2832346e-02   0.0000000e+00
   8.4602538e+00   5.1200000e+02   7.2878697e-02   0.0000000e+00
   8.4702541e+00   5.1200000e+02   7.2860697e-02   0.0000000e+00
   8.4802544e+00   5.1200000e+02   7.2776168e-02   0.0000000e+00
   8.4902547e+00   5.1200000e+02   7.2622926e-02   0.0000000e+00
   8.5002550e+00   5.1200000e+02   7.2398782e-02   0.0000000e+00
   8.5102553e+00   5.1200000e+02   7.2101543e-02   0.0000000e+00
   8.5202556e+00   5.1300000e+02   7.1729012e-02   0.0000000e+00
   8.5302559e+00   5.1300000e+02   7.1278997e-02   0.0000000e+00
   8.5402562e+00   5.1300000e+02   7.0749306e-02   0.0000000e+00
   8.5502565e+00   5.1300000e+02   7.0137752e-02   0.0000000e+00
   8.5602568e+00   5.1300000e+02   6.9442158e-02   0.0000000e+00
   8.5702571e+00   5.1300000e+02   6.8660354e-02   0.0000000e+00
   8.5802574e+00   5.1400000e+02   6.7790184e-02   0.0000000e+00
   8.5902577e+00   5.1300000e+02   6.6829507e-02   0.0000000e+00
   8.6002580e+00   5.1400000e+02   6.5776199e-02   0.0000000e+00
   8.6102583e+00   5.1400000e+02   6.4628157e-02   0.0000000e+00
   8.6202586e+00   5.1400000e+02   6.3383300e-02   0.0000000e+00
   8.6302589e+00   5.1400000e+02   6.2039573e-02   0.0000000e+00
   8.6402592e+00   5.1400000e+02   6.0594952e-02   0.0000000e+00
   8.6502595e+00   5.1400000e+02   5.9047442e-02   0.0000000e+00
   8.6602598e+00   5.1400000e+02   5.7395082e-02   0.0000000e+00
   8.6702601e+00   5.1300000e+02   5.5635951e-02   0.0000000e+00
   8.6802604e+00   5.1300000e+02   5.3768168e-02   0.0000000e+00
   8.6902607e+00   5.1400000e+02   5.1789895e-02   0.0000000e+00
   8.7002610e+00   5.1300000e+02   4.9699341e-02   0.0000000e+00
   8.7102613e+00   5.1300000e+02   4.7494766e-02   0.0000000e+00
   8.7202616e+00   5.1400000e+02   4.5174484e-02   0.0000000e+00
   8.7302619e+00   5.1400000e+02   4.2736864e-02   0.0000000e+00
   8.7402622e+00   5.1400000e+02   4.0180338e-02   0.0000000e+00
   8.7502625e+00   5.1500000e+02   3.7503398e-02   0.0000000e+00
   8.7602628e+00   5.1500000e+02   3.4704607e-02   0.0000000e+00
   8.7702631e+00   5.1500000e+02   3.1782596e-02   0.0000000e+00
   8.7802634e+00   5.1600000e+02   2.8736071e-02   0.0000000e+00
   8.7902637e+00   5.1600000e+02   2.5563815e-02   0.0000000e+00
   8.8002640e+00   5.1700000e+02   2.2264693e-02   0.0000000e+00
   8.8102643e+00   5.1700000e+02   1.8837655e-02   0.0000000e+00
   8.8202646e+00   5.1700000e+02   1.5281738e-02   0.0000000e+00
   8.8302649e+00   5.1800000e+02   1.1596073e-02   0.0000000e+00
   8.8402652e+00   5.1800000e+02   7.7798858e-03   0.0000000e+00
   8.8502655e+00   5.1900000e+02   3.8325006e-03   0.0000000e+00
   8.8602658e+00   5.1900000e+02  -2.4665399e-04   0.0000000e+00
   8.8702661e+00   5.1900000e+02  -4.4580432e-03   0.0000000e+00
   8.8802664e+00   5.1900000e+02  -8.8020219e-03   0.0000000e+00
   8.8902667e+00   5.1900000e+02  -1.3278831e-02   0.0000000e+00
   8.9002670e+00   5.1900000e+02  -1.7888593e-02   0.0000000e+00
   8.9102673e+00   5.1900000e+02  -2.2631311e-02   0.0000000e+00
   8.9202676e+00   5.1900000e+02  -2.7506861e-02   0.0000000e+00
   8.9302679e+00   5.1900000e+02  -3.2514991e-02   0.0000000e+00
   8.9402682e+00   5.1900000e+02  -3.7655318e-02   0.0000000e+00
   8.9502685e+00   5.1900000e+02  -4.2927321e-02   0.0000000e+00
   8.9602688e+00   5.2000000e+02  -4.8330344e-02   0.0000000e+00
   8.9702691e+00   5.2000000e+02  -5.3863583e-02   0.0000000e+00
   8.9802694e+00   5.2000000e+02  -5.9526093e-02   0.0000000e+00
   8.9902697e+00   5.2000000e+02  -6.5316775e-02   0.0000000e+00
   9.0002700e+00   5.2000000e+02  -7.1234380e-02   0.0000000e+00
   9.0102703e+00   5.2000000e+02  -7.7277502e-02   0.0000000e+00
   9.0202706e+00   5.2000000e+02  -8.3444577e-02   0.0000000e+00
   9.0302709e+00   5.2000000e+02  -8.9733876e-02   0.0000000e+00
   9.0402712e+00   5.2100000e+02  -9.6143506e-02   0.0000000e+00
   9.0502715e+00   5.2100000e+02  -1.0267141e-01   0.0000000e+00
   9.0602718e+00   5.2100000e+02  -1.0931534e-01   0.0000000e+00
   9.0702721e+00   5.2100000e+02  -1.1607291e-01   0.0000000e+00
   9.0802724e+00   5.2100000e+02  -1.2294153e-01   0.0000000e+00
   9.0902727e+00   5.2100000e+02  -1.2991842e-01   0.0000000e+00
   9.1002730e+00   5.2100000e+02  -1.3700065e-01   0.0000000e+00
   9.1102733e+00   5.2200000e+02  -1.4418509e-01   0.0000000e+00
   9.1202736e+00   5.2100000e+02  -1.5146842e-01   0.0000000e+00
   9.1302739e+00   5.2100000e+02  -1.5884713e-01   0.0000000e+00
   9.1402742e+00   5.2100000e+02  -1.6631753e-01   0.0000000e+00
   9.1502745e+00   5.2100000e+02  -1.7387572e-01   0.0000000e+00
   9.1602748e+00   5.2200000e+02  -1.8151763e-01   0.0000000e+00
   9.1702751e+00   5.2200000e+02  -1.8923897e-01   0.0000000e+00
   9.1802754e+00   5.2200000e+02  -1.9703526e-01   0.0000000e+00
   9.1902757e+00   5.2300000e+02  -2.0490183e-01   0.0000000e+00
   9.2002760e+00   5.2400000e+02  -2.1283380e-01   0.0000000e+00
   9.2102763e+00   5.2400000e+02  -2.2082609e-01   0.0000000e+00
   9.2202766e+00   5.2400000e+02  -2.2887342e-01   0.0000000e+00
   9.2302769e+00   5.2500000e+02  -2.3697030e-01   0.0000000e+00
   9.2402772e+00   5.2500000e+02  -2.4511105e-01   0.0000000e+00
   9.2502775e+00   5.2600000e+02  -2.5328979e-01   0.0000000e+00
   9.2602778e+00   5.2700000e+02  -2.6150041e-01   0.0000000e+00
   9.2702781e+00   5.2700000e+02  -2.6973663e-01   0.0000000e+00
   9.2802784e+00   5.2700000e+02  -2.7799193e-01   0.0000000e+00
   9.2902787e+00   5.2800000e+02  -2.8625963e-01   0.0000000e+00
   9.3002790e+00   5.2900000e+02  -2.9453281e-01   0.0000000e+00
   9.3102793e+00   5.3000000e+02  -3.0280438e-01   0.0000000e+00
   9.3202796e+00   5.3100000e+02  -3.1106703e-01   0.0000000e+00
   9.3302799e+00   5.3200000e+02  -3.1931325e-01   0.0000000e+00
   9.3402802e+00   5.3200000e+02  -3.2753536e-01   0.0000000e+00
   9.3502805e+00   5.3400000e+02  -3.3572546e-01   0.0000000e+00
   9.3602808e+00   5.3500000e+02  -3.4387546e-01   0.0000000e+00
   9.3702811e+00   5.3600000e+02  -3.5197709e-01   0.0000000e+00
   9.3802814e+00   5.3700000e+02  -3.6002189e-01   0.0000000e+00
   9.3902817e+00   5.3900000e+02  -3.6800122e-01   0.0000000e+00
   9.4002820e+00   5.3900000e+02  -3.7590624e-01   0.0000000e+00
   9.4102823e+00   5.4100000e+02  -3.8372795e-01   0.0000000e+00
   9.4202826e+00   5.4200000e+02  -3.9145717e-01   0.0000000e+00
   9.4302829e+00   5.4300000e+02  -3.9908455e-01   0.0000000e+00
   9.4402832e+00   5.4500000e+02  -4.0660058e-01   0.0000000e+00
   9.4502835e+00   5.4700000e+02  -4.1399559e-01   0.0000000e+00
   9.4602838e+00   5.4900000e+02  -4.2125972e-01   0.0000000e+00
   9.4702841e+00   5.5100000e+02  -4.2838301e-01   0.0000000e+00
   9.4802844e+00   5.5400000e+02  -4.3535532e-01   0.0000000e+00
   9.4902847e+00   5.5600000e+02  -4.4216638e-01   0.0000000e+00
   9.5002850e+00   5.5900000e+02  -4.4880578e-01   0.0000000e+00
   9.5102853e+00   5.6100000e+02  -4.5526298e-01   0.0000000e+00
   9.5202856e+00   5.6400000e+02  -4.6152733e-01   0.0000000e+00
   9.5302859e+00   5.6600000e+02  -4.6758805e-01   0.0000000e+00
   9.5402862e+00   5.6900000e+02  -4.7343427e-01   0.0000000e+00
   9.5502865e+00   5.7200000e+02  -4.7905499e-01   0.0000000e+00
   9.5602868e+00   5.7500000e+02  -4.8443914e-01   0.0000000e+00
   9.5702871e+00   5.7800000e+02  -4.8957555e-01   0.0000000e+00
   9.5802874e+00   5.8100000e+02  -4.9445300e-01   0.0000000e+00
   9.5902877e+00   5.8300000e+02  -4.9906016e-01   0.0000000e+00
   9.6002880e+00   5.8600000e+02  -5.0338567e-01   0.0000000e+00
   9.6102883e+00   5.8900000e+02  -5.0741811e-01   0.0000000e+00
   9.6202886e+00   5.9200000e+02  -5.1114601e-01   0.0000000e+00
   9.6302889e+00   5.9500000e+02  -5.1455788e-01   0.0000000e+00
   9.6402892e+00   5.9700000e+02  -5.1764220e-01   0.0000000e+00
   9.6502895e+00   6.0000000e+02  -5.2038743e-01   0.0000000e+00
   9.6602898e+00   6.0200000e+02  -5.2278206e-01   0.0000000e+00
   9.6702901e+00   6.0400000e+02  -5.2481454e-01   0.0000000e+00
   9.6802904e+00   6.0700000e+02  -5.2647338e-01   0.0000000e+00
   9.6902907e+00   6.0900000e+02  -5.2774710e-01   0.0000000e+00
   9.7002910e+00   6.1000000e+02  -5.2862427e-01   0.0000000e+00
   9.7102913e+00   6.1200000e+02  -5.2909351e-01   0.0000000e+00
   9.7202916e+00   6.1300000e+02  -5.2914350e-01   0.0000000e+00
   9.7302919e+00   6.1500000e+02  -5.2876302e-01   0.0000000e+00
   9.7402922e+00   6.1600000e+02  -5.2794090e-01   0.0000000e+00
   9.7502925e+00   6.1700000e+02  -5.2666611e-01   0.0000000e+00
   9.7602928e+00   6.1700000e+02  -5.2492772e-01   0.0000000e+00
   9.7702931e+00   6.1700000e+02  -5.2271493e-01   0.0000000e+00
   9.7802934e+00   6.1700000e+02  -5.2001708e-01   0.0000000e+00
   9.7902937e+00   6.1800000e+02  -5.1682366e-01   0.0000000e+00
   9.8002940e+00   6.1700000e+02  -5.1312434e-01   0.0000000e+00
   9.8102943e+00   6.1700000e+02  -5.0890897e-01   0.0000000e+00
   9.8202946e+00   6.1600000e+02  -5.0416757e-01   0.0000000e+00
   9.8302949e+00   6.1600000e+02  -4.9889041e-01   0.0000000e+00
   9.8402952e+00   6.1600000e+02  -4.9306797e-01   0.0000000e+00
   9.8502955e+00   6.1500000e+02  -4.8669094e-01   0.0000000e+00
   9.8602958e+00   6.1500000e+02  -4.7975030e-01   0.0000000e+00
   9.8702961e+00   6.1500000e+02  -4.7223728e-01   0.0000000e+00
   9.8802964e+00   6.1400000e+02  -4.6414340e-01   0.0000000e+00
   9.8902967e+00   6.1300000e+02  -4.5546046e-01   0.0000000e+00
   9.9002970e+00   6.1200000e+02  -4.4618059e-01   0.0000000e+00
   9.9102973e+00   6.1200000e+02  -4.3629624e-01   0.0000000e+00
   9.9202976e+00   6.1100000e+02  -4.2580018e-01   0.0000000e+00
   9.9302979e+00   6.1000000e+02  -4.1468558e-01   0.0000000e+00
   9.9402982e+00   6.1000000e+02  -4.0294593e-01   0.0000000e+00
   9.9502985e+00   6.0900000e+02  -3.9057514e-01   0.0000000e+00
   9.9602988e+00   6.0900000e+02  -3.7756752e-01   0.0000000e+00
   9.9702991e+00   6.0800000e+02  -3.6391777e-01   0.0000000e+00
   9.9802994e+00   6.0800000e+02  -3.4962104e-01   0.0000000e+00
   9.9902997e+00   6.0800000e+02  -3.3467292e-01   0.0000000e+00
   1.0000300e+01   6.0700000e+02  -3.1906945e-01   0.0000000e+00
   1.0010300e+01   6.0600000e+02  -3.0280717e-01   0.0000000e+00
   1.0020301e+01   6.0500000e+02  -2.8588308e-01   0.0000000e+00
   1.0030301e+01   6.0400000e+02  -2.6829469e-01   0.0000000e+00
   1.0040301e+01   6.0400000e+02  -2.5004004e-01   0.0000000e+00
   1.0050302e+01   6.0400000e+02  -2.3111769e-01   0.0000000e+00
   1.0060302e+01   6.0300000e+02  -2.1152674e-01   0.0000000e+00
   1.0070302e+01   6.0300000e+02  -1.9126685e-01   0.0000000e+00
   1.0080302e+01   6.0200000e+02  -1.7033827e-01   0.0000000e+00
   1.0090303e+01   6.0100000e+02  -1.4874181e-01   0.0000000e+00
   1.0100303e+01   6.0100000e+02  -1.2647889e-01   0.0000000e+00
   1.0110303e+01   6.0000000e+02  -1.0355154e-01   0.0000000e+00
   1.0120304e+01   6.0000000e+02  -7.9962428e-02   0.0000000e+00
   1.0130304e+01   6.0000000e+02  -5.5714827e-02   0.0000000e+00
   1.0140304e+01   6.0000000e+02  -3.0812677e-02   0.0000000e+00
   1.0150305e+01   6.0000000e+02  -5.2605736e-03   0.0000000e+00
   1.0160305e+01   5.9900000e+02   2.0936220e-02   0.0000000e+00
   1.0170305e+01   5.9900000e+02   4.7771759e-02   0.0000000e+00
   1.0180305e+01   5.9800000e+02   7.5239407e-02   0.0000000e+00
   1.0190306e+01   5.9800000e+02   1.0333183e-01   0.0000000e+00
   1.0200306e+01   5.9800000e+02   1.3204098e-01   0.0000000e+00
   1.0210306e+01   5.9800000e+02   1.6135809e-01   0.0000000e+00
   1.0220307e+01   5.9700000e+02   1.9127366e-01   0.0000000e+00
   1.0230307e+01   5.9600000e+02   2.2177748e-01   0.0000000e+00
   1.0240307e+01   5.9600000e+02   2.5285856e-01   0.0000000e+00
   1.0250308e+01   5.9500000e+02   2.8450518e-01   0.0000000e+00
   1.0260308e+01   5.9500000e+02   3.1670487e-01   0.0000000e+00
   1.0270308e+01   5.9400000e+02   3.4944437e-01   0.0000000e+00
   1.0280308e+01   5.9400000e+02   3.8270968e-01   0.0000000e+00
   1.0290309e+01   5.9300000e+02   4.1648601e-01   0.0000000e+00
   1.0300309e+01   5.9300000e+02   4.5075779e-01   0.0000000e+00
   1.0310309e+01   5.9200000e+02   4.8550870e-01   0.0000000e+00
   1.0320310e+01   5.9200000e+02   5.2072160e-01   0.0000000e+00
   1.0330310e+01   5.9100000e+02   5.5637857e-01   0.0000000e+00
   1.0340310e+01   5.9100000e+02   5.9246093e-01   0.0000000e+00
   1.0350311e+01   5.9000000e+02   6.2894918e-01   0.0000000e+00
   1.0360311e+01   5.8900000e+02   6.6582304e-01   0.0000000e+00
   1.0370311e+01   5.8800000e+02   7.0306146e-01   0.0000000e+00
   1.0380311e+01   5.8800000e+02   7.4064258e-01   0.0000000e+00
   1.0390312e+01   5.8700000e+02   7.7854377e-01   0.0000000e+00
   1.0400312e+01   5.8600000e+02   8.1674162e-01   0.0000000e+00
   1.0410312e+01   5.8600000e+02   8.5521193e-01   0.0000000e+00
   1.0420313e+01   5.8400000e+02   8.9392975e-01   0.0000000e+00
   1.0430313e+01   5.8300000e+02   9.3286933e-01   0.0000000e+00
   1.0440313e+01   5.8300000e+02   9.7200418e-01   0.0000000e+00
   1.0450314e+01   5.8100000e+02   1.0113071e+00   0.0000000e+00
   1.0460314e+01   5.8100000e+02   1.0507500e+00   0.0000000e+00
   1.0470314e+01   5.8000000e+02   1.0903042e+00   0.0000000e+00
   1.0480314e+01   5.7900000e+02   1.1299402e+00   0.0000000e+00
   1.0490315e+01   5.7900000e+02   1.1696279e+00   0.0000000e+00
   1.0500315e+01   5.7900000e+02   1.2093363e+00   0.0000000e+00
   1.0510315e+01   5.7800000e+02   1.2490339e+00   0.0000000e+00
   1.0520316e+01   5.7800000e+02   1.2886885e+00   0.0000000e+00
   1.0530316e+01   5.7800000e+02   1.3282670e+00   0.0000000e+00
   1.0540316e+01   5.7700000e+02   1.3677359e+00   0.0000000e+00
   1.0550317e+01   5.7700000e+02   1.4070611e+00   0.0000000e+00
   1.0560317e+01   5.7700000e+02   1.4462075e+00   0.0000000e+00
   1.0570317e+01   5.7700000e+02   1.4851398e+00   0.0000000e+00
   1.0580317e+01   5.7700000e+02   1.5238220e+00   0.0000000e+00
   1.0590318e+01   5.7700000e+02   1.5622174e+00   0.0000000e+00
   1.0600318e+01   5.7700000e+02   1.6002890e+00   0.0000000e+00
   1.0610318e+01   5.7700000e+02   1.6379990e+00   0.0000000e+00
   1.0620319e+01   5.7600000e+02   1.6753093e+00   0.0000000e+00
   1.0630319e+01   5.7600000e+02   1.7121813e+00   0.0000000e+00
   1.0640319e+01   5.7500000e+02   1.7485758e+00   0.0000000e+00
   1.0650320e+01   5.7500000e+02   1.7844533e+00   0.0000000e+00
   1.0660320e+01   5.7500000e+02   1.8197739e+00   0.0000000e+00
   1.0670320e+01   5.7500000e+02   1.8544973e+00   0.0000000e+00
   1.0680320e+01   5.7500000e+02   1.8885828e+00   0.0000000e+00
   1.0690321e+01   5.7400000e+02   1.9219895e+00   0.0000000e+00
   1.0700321e+01   5.7300000e+02   1.9546760e+00   0.0000000e+00
   1.0710321e+01   5.7300000e+02   1.9866009e+00   0.0000000e+00
   1.0720322e+01   5.7200000e+02   2.0177223e+00   0.0000000e+00
   1.0730322e+01   5.7200000e+02   2.0479983e+00   0.0000000e+00
   1.0740322e+01   5.7200000e+02   2.0773869e+00   0.0000000e+00
   1.0750323e+01   5.7200000e+02   2.1058456e+00   0.0000000e+00
   1.0760323e+01   5.7200000e+02   2.1333322e+00   0.0000000e+00
   1.0770323e+01   5.7200000e+02   2.1598043e+00   0.0000000e+00
   1.0780323e+01   5.7100000e+02   2.1852193e+00   0.0000000e+00
   1.0790324e+01   5.7100000e+02   2.2095348e+00   0.0000000e+00
   1.0800324e+01   5.7100000e+02   2.2327085e+00   0.0000000e+00
   1.0810324e+01   5.7100000e+02   2.2546980e+00   0.0000000e+00
   1.0820325e+01   5.7100000e+02   2.2754611e+00   0.0000000e+00
   1.0830325e+01   5.7100000e+02   2.2949558e+00   0.0000000e+00
   1.0840325e+01   5.7100000e+02   2.3131402e+00   0.0000000e+00
   1.0850326e+01   5.7100000e+02   2.3299728e+00   0.0000000e+00
   1.0860326e+01   5.7100000e+02   2.3454122e+00   0.0000000e+00
   1.0870326e+01   5.7100000e+02   2.3594174e+00   0.0000000e+00
   1.0880326e+01   5.7100000e+02   2.3719479e+00   0.0000000e+00
   1.0890327e+01   5.7100000e+02   2.3829633e+00   0.0000000e+00
   1.0900327e+01   5.7100000e+02   2.3924240e+00   0.0000000e+00
   1.0910327e+01   5.7000000e+02   2.4002906e+00   0.0000000e+00
   1.0920328e+01   5.7000000e+02   2.4065244e+00   0.0000000e+00
   1.0930328e+01   5.7000000e+02   2.4110873e+00   0.0000000e+00
   1.0940328e+01   5.6900000e+02   2.4139416e+00   0.0000000e+00
   1.0950329e+01   5.6800000e+02   2.4150505e+00   0.0000000e+00
   1.0960329e+01   5.6800000e+02   2.4143779e+00   0.0000000e+00
   1.0970329e+01   5.6800000e+02   2.4118884e+00   0.0000000e+00
   1.0980329e+01   5.6700000e+02   2.4075473e+00   0.0000000e+00
   1.0990330e+01   5.6700000e+02   2.4013210e+00   0.0000000e+00
   1.1000330e+01   5.6600000e+02   2.3931765e+00   0.0000000e+00
   1.1010330e+01   5.6600000e+02   2.3830819e+00   0.0000000e+00
   1.1020331e+01   5.6600000e+02   2.3710064e+00   0.0000000e+00
   1.1030331e+01   5.6600000e+02   2.3569199e+00   0.0000000e+00
   1.1040331e+01   5.6600000e+02   2.3407938e+00   0.0000000e+00
   1.1050332e+01   5.6500000e+02   2.3226001e+00   0.0000000e+00
   1.1060332e+01   5.6400000e+02   2.3023125e+00   0.0000000e+00
   1.1070332e+01   5.6400000e+02   2.2799056e+00   0.0000000e+00
   1.1080332e+01   5.6400000e+02   2.2553553e+00   0.0000000e+00
   1.1090333e+01   5.6300000e+02   2.2286387e+00   0.0000000e+00
   1.1100333e+01   5.6300000e+02   2.1997345e+00   0.0000000e+00
   1.1110333e+01   5.6300000e+02   2.1686225e+00   0.0000000e+00
   1.1120334e+01   5.6200000e+02   2.1352842e+00   0.0000000e+00
   1.1130334e+01   5.6200000e+02   2.0997023e+00   0.0000000e+00
   1.1140334e+01   5.6100000e+02   2.0618612e+00   0.0000000e+00
   1.1150335e+01   5.6100000e+02   2.0217467e+00   0.0000000e+00
   1.1160335e+01   5.6000000e+02   1.9793465e+00   0.0000000e+00
   1.1170335e+01   5.6000000e+02   1.9346494e+00   0.0000000e+00
   1.1180335e+01   5.6000000e+02   1.8876464e+00   0.0000000e+00
   1.1190336e+01   5.6000000e+02   1.8383299e+00   0.0000000e+00
   1.1200336e+01   5.6000000e+02   1.7866941e+00   0.0000000e+00
   1.1210336e+01   5.5900000e+02   1.7327350e+00   0.0000000e+00
   1.1220337e+01   5.5900000e+02   1.6764505e+00   0.0000000e+00
   1.1230337e+01   5.6000000e+02   1.6178402e+00   0.0000000e+00
   1.1240337e+01   5.5900000e+02   1.5569057e+00   0.0000000e+00
   1.1250338e+01   5.5900000e+02   1.4936505e+00   0.0000000e+00
   1.1260338e+01   5.5900000e+02   1.4280799e+00   0.0000000e+00
   1.1270338e+01   5.5900000e+02   1.3602014e+00   0.0000000e+00
   1.1280338e+01   5.6000000e+02   1.2900244e+00   0.0000000e+00
   1.1290339e+01   5.6000000e+02   1.2175603e+00   0.0000000e+00
   1.1300339e+01   5.6000000e+02   1.1428226e+00   0.0000000e+00
   1.1310339e+01   5.6000000e+02   1.0658269e+00   0.0000000e+00
   1.1320340e+01   5.6000000e+02   9.8659080e-01   0.0000000e+00
   1.1330340e+01   5.6000000e+02   9.0513419e-01   0.0000000e+00
   1.1340340e+01   5.6000000e+02   8.2147900e-01   0.0000000e+00
   1.1350341e+01   5.6000000e+02   7.3564935e-01   0.0000000e+00
   1.1360341e+01   5.6100000e+02   6.4767155e-01   0.0000000e+00
   1.1370341e+01   5.6100000e+02   5.5757412e-01   0.0000000e+00
   1.1380341e+01   5.6100000e+02   4.6538775e-01   0.0000000e+00
   1.1390342e+01   5.6100000e+02   3.7114541e-01   0.0000000e+00
   1.1400342e+01   5.6100000e+02   2.7488226e-01   0.0000000e+00
   1.1410342e+01   5.6100000e+02   1.7663572e-01   0.0000000e+00
   1.1420343e+01   5.6200000e+02   7.6445459e-02   0.0000000e+00
   1.1430343e+01   5.6200000e+02  -2.5646602e-02   0.0000000e+00
   1.1440343e+01   5.6200000e+02  -1.2959629e-01   0.0000000e+00
   1.1450344e+01   5.6200000e+02  -2.3535716e-01   0.0000000e+00
   1.1460344e+01   5.6200000e+02  -3.4288054e-01   0.0000000e+00
   1.1470344e+01   5.6300000e+02  -4.5211549e-01   0.0000000e+00
   1.1480344e+01   5.6300000e+02  -5.6300881e-01   0.0000000e+00
   1.1490345e+01   5.6300000e+02  -6.7550509e-01   0.0000000e+00
   1.1500345e+01   5.6300000e+02  -7.8954667e-01   0.0000000e+00
   1.1510345e+01   5.6300000e+02  -9.0507368e-01   0.0000000e+00
   1.1520346e+01   5.6400000e+02  -1.0220240e+00   0.0000000e+00
   1.1530346e+01   5.6400000e+02  -1.1403335e+00   0.0000000e+00
   1.1540346e+01   5.6400000e+02  -1.2599356e+00   0.0000000e+00
   1.1550347e+01   5.6400000e+02  -1.3807618e+00   0.0000000e+00
   1.1560347e+01   5.6400000e+02  -1.5027414e+00   0.0000000e+00
   1.1570347e+01   5.6400000e+02  -1.6258016e+00   0.0000000e+00
   1.1580347e+01   5.6400000e+02  -1.7498674e+00   0.0000000e+00
   1.1590348e+01   5.6400000e+02  -1.8748620e+00   0.0000000e+00
   1.1600348e+01   5.6400000e+02  -2.0007065e+00   0.0000000e+00
   1.1610348e+01   5.6500000e+02  -2.1273199e+00   0.0000000e+00
   1.1620349e+01   5.6500000e+02  -2.2546193e+00   0.0000000e+00
   1.1630349e+01   5.6400000e+02  -2.3825200e+00   0.0000000e+00
   1.1640349e+01   5.6500000e+02  -2.5109354e+00   0.0000000e+00
   1.1650350e+01   5.6500000e+02  -2.6397771e+00   0.0000000e+00
   1.1660350e+01   5.6600000e+02  -2.7689547e+00   0.0000000e+00
   1.1670350e+01   5.6500000e+02  -2.8983765e+00   0.0000000e+00
   1.1680350e+01   5.6600000e+02  -3.0279487e+00   0.0000000e+00
   1.1690351e+01   5.6600000e+02  -3.1575761e+00   0.0000000e+00
   1.1700351e+01   5.6500000e+02  -3.2871619e+00   0.0000000e+00
   1.1710351e+01   5.6600000e+02  -3.4166077e+00   0.0000000e+00
   1.1720352e+01   5.6600000e+02  -3.5458139e+00   0.0000000e+00
   1.1730352e+01   5.6600000e+02  -3.6746791e+00   0.0000000e+00
   1.1740352e+01   5.6600000e+02  -3.8031010e+00   0.0000000e+00
   1.1750353e+01   5.6600000e+02  -3.9309757e+00   0.0000000e+00
   1.1760353e+01   5.6600000e+02  -4.0581983e+00   0.0000000e+00
   1.1770353e+01   5.6600000e+02  -4.1846626e+00   0.0000000e+00
   1.1780353e+01   5.6600000e+02  -4.3102615e+00   0.0000000e+00
   1.1790354e+01   5.6600000e+02  -4.4348870e+00   0.0000000e+00
   1.1800354e+01   5.6600000e+02  -4.5584298e+00   0.0000000e+00
   1.1810354e+01   5.6600000e+02  -4.6807802e+00   0.0000000e+00
   1.1820355e+01   5.6700000e+02  -4.8018276e+00   0.0000000e+00
   1.1830355e+01   5.6700000e+02  -4.9214606e+00   0.0000000e+00
   1.1840355e+01   5.6700000e+02  -5.0395673e+00   0.0000000e+00
   1.1850356e+01   5.6700000e+02  -5.1560355e+00   0.0000000e+00
   1.1860356e+01   5.6700000e+02  -5.2707521e+00   0.0000000e+00
   1.1870356e+01   5.6600000e+02  -5.3836042e+00   0.0000000e+00
   1.1880356e+01   5.6700000e+02  -5.4944784e+00   0.0000000e+00
   1.1890357e+01   5.6700000e+02  -5.6032612e+00   0.0000000e+00
   1.1900357e+01   5.6700000e+02  -5.7098389e+00   0.0000000e+00
   1.1910357e+01   5.6600000e+02  -5.8140980e+00   0.0000000e+00
   1.1920358e+01   5.6600000e+02  -5.9159252e+00   0.0000000e+00
   1.1930358e+01   5.6600000e+02  -6.0152072e+00   0.0000000e+00
   1.1940358e+01   5.6600000e+02  -6.1118312e+00   0.0000000e+00
   1.1950359e+01   5.6500000e+02  -6.2056849e+00   0.0000000e+00
   1.1960359e+01   5.6500000e+02  -6.2966562e+00   0.0000000e+00
   1.1970359e+01   5.6500000e+02  -6.3846340e+00   0.0000000e+00
   1.1980359e+01   5.6500000e+02  -6.4695077e+00   0.0000000e+00
   1.1990360e+01   5.6400000e+02  -6.5511675e+00   0.0000000e+00
   1.2000360e+01   5.6400000e+02  -6.6295047e+00   0.0000000e+00
   1.2010360e+01   5.6300000e+02  -6.7044116e+00   0.0000000e+00
   1.2020361e+01   5.6300000e+02  -6.7757816e+00   0.0000000e+00
   1.2030361e+01   5.6400000e+02  -6.8435092e+00   0.0000000e+00
   1.2040361e+01   5.6300000e+02  -6.9074905e+00   0.0000000e+00
   1.2050362e+01   5.6300000e+02  -6.9676230e+00   0.0000000e+00
   1.2060362e+01   5.6300000e+02  -7.0238056e+00   0.0000000e+00
   1.2070362e+01   5.6300000e+02  -7.0759390e+00   0.0000000e+00
   1.2080362e+01   5.6200000e+02  -7.1239257e+00   0.0000000e+00
   1.2090363e+01   5.6100000e+02  -7.1676700e+00   0.0000000e+00
   1.2100363e+01   5.6100000e+02  -7.2070782e+00   0.0000000e+00
   1.2110363e+01   5.6100000e+02  -7.2420586e+00   0.0000000e+00
   1.2120364e+01   5.6000000e+02  -7.2725220e+00   0.0000000e+00
   1.2130364e+01   5.6000000e+02  -7.2983811e+00   0.0000000e+00
   1.2140364e+01   5.5900000e+02  -7.3195512e+00   0.0000000e+00
   1.2150365e+01   5.5900000e+02  -7.3359501e+00   0.0000000e+00
   1.2160365e+01   5.5900000e+02  -7.3474983e+00   0.0000000e+00
   1.2170365e+01   5.5800000e+02  -7.3541187e+00   0.0000000e+00
   1.2180365e+01   5.5800000e+02  -7.3557372e+00   0.0000000e+00
   1.2190366e+01   5.5800000e+02  -7.3522828e+00   0.0000000e+00
   1.2200366e+01   5.5800000e+02  -7.3436871e+00   0.0000000e+00
   1.2210366e+01   5.5800000e+02  -7.3298851e+00   0.0000000e+00
   1.2220367e+01   5.5800000e+02  -7.3108148e+00   0.0000000e+00
   1.2230367e+01   5.5700000e+02  -7.2864176e+00   0.0000000e+00
   1.2240367e+01   5.5700000e+02  -7.2566383e+00   0.0000000e+00
   1.2250368e+01   5.5700000e+02  -7.2214250e+00   0.0000000e+00
   1.2260368e+01   5.5600000e+02  -7.1807296e+00   0.0000000e+00
   1.2270368e+01   5.5600000e+02  -7.1345074e+00   0.0000000e+00
   1.2280368e+01   5.5600000e+02  -7.0827175e+00   0.0000000e+00
   1.2290369e+01   5.5500000e+02  -7.0253230e+00   0.0000000e+00
   1.2300369e+01   5.5500000e+02  -6.9622905e+00   0.0000000e+00
   1.2310369e+01   5.5400000e+02  -6.8935910e+00   0.0000000e+00
   1.2320370e+01   5.5400000e+02  -6.8191991e+00   0.0000000e+00
   1.2330370e+01   5.5400000e+02  -6.7390939e+00   0.0000000e+00
   1.2340370e+01   5.5300000e+02  -6.6532584e+00   0.0000000e+00
   1.2350371e+01   5.5300000e+02  -6.5616800e+00   0.0000000e+00
   1.2360371e+01   5.5300000e+02  -6.4643503e+00   0.0000000e+00
   1.2370371e+01   5.5300000e+02  -6.3612655e+00   0.0000000e+00
   1.2380371e+01   5.5200000e+02  -6.2524258e+00   0.0000000e+00
   1.2390372e+01   5.5100000e+02  -6.1378363e+00   0.0000000e+00
   1.2400372e+01   5.5100000e+02  -6.0175064e+00   0.0000000e+00
   1.2410372e+01   5.5100000e+02  -5.8914503e+00   0.0000000e+00
   1.2420373e+01   5.5100000e+02  -5.7596865e+00   0.0000000e+00
   1.2430373e+01   5.5100000e+02  -5.6222384e+00   0.0000000e+00
   1.2440373e+01   5.5000000e+02  -5.4791340e+00   0.0000000e+00
   1.2450374e+01   5.5000000e+02  -5.3304062e+00   0.0000000e+00
   1.2460374e+01   5.5000000e+02  -5.1760925e+00   0.0000000e+00
   1.2470374e+01   5.4900000e+02  -5.0162353e+00   0.0000000e+00
   1.2480374e+01   5.4900000e+02  -4.8508817e+00   0.0000000e+00
   1.2490375e+01   5.4900000e+02  -4.6800838e+00   0.0000000e+00
   1.2500375e+01   5.4800000e+02  -4.5038984e+00   0.0000000e+00
   1.2510375e+01   5.4800000e+02  -4.3223872e+00   0.0000000e+00
   1.2520376e+01   5.4800000e+02  -4.1356169e+00   0.0000000e+00
   1.2530376e+01   5.4700000e+02  -3.9436589e+00   0.0000000e+00
   1.2540376e+01   5.4700000e+02  -3.7465895e+00   0.0000000e+00
   1.2550377e+01   5.4700000e+02  -3.5444900e+00   0.0000000e+00
   1.2560377e+01   5.4700000e+02  -3.3374464e+00   0.0000000e+00
   1.2570377e+01   5.4600000e+02  -3.1255496e+00   0.0000000e+00
   1.2580377e+01   5.4600000e+02  -2.9088954e+00   0.0000000e+00
   1.2590378e+01   5.4600000e+02  -2.6875843e+00   0.0000000e+00
   1.2600378e+01   5.4500000e+02  -2.4617215e+00   0.0000000e+00
   1.2610378e+01   5.4500000e+02  -2.2314171e+00   0.0000000e+00
   1.2620379e+01   5.4400000e+02  -1.9967858e+00   0.0000000e+00
   1.2630379e+01   5.4400000e+02  -1.7579471e+00   0.0000000e+00
   1.2640379e+01   5.4400000e+02  -1.5150249e+00   0.0000000e+00
   1.2650380e+01   5.4300000e+02  -1.2681478e+00   0.0000000e+00
   1.2660380e+01   5.4300000e+02  -1.0174489e+00   0.0000000e+00
   1.2670380e+01   5.4300000e+02  -7.6306568e-01   0.0000000e+00
   1.2680380e+01   5.4200000e+02  -5.0514015e-01   0.0000000e+00
   1.2690381e+01   5.4200000e+02  -2.4381851e-01   0.0000000e+00
   1.2700381e+01   5.4200000e+02   2.0748736e-02   0.0000000e+00
   1.2710381e+01   5.4100000e+02   2.8840694e-01   0.0000000e+00
   1.2720382e+01   5.4100000e+02   5.5899733e-01   0.0000000e+00
   1.2730382e+01   5.4100000e+02   8.3235718e-01   0.0000000e+00
   1.2740382e+01   5.4100000e+02   1.1083198e+00   0.0000000e+00
   1.2750383e+01   5.4000000e+02   1.3867148e+00   0.0000000e+00
   1.2760383e+01   5.4000000e+02   1.6673678e+00   0.0000000e+00
   1.2770383e+01   5.3900000e+02   1.9501011e+00   0.0000000e+00
   1.2780383e+01   5.3900000e+02   2.2347334e+00   0.0000000e+00
   1.2790384e+01   5.3900000e+02   2.5210800e+00   0.0000000e+00
   1.2800384e+01   5.3900000e+02   2.8089528e+00   0.0000000e+00
   1.2810384e+01   5.3900000e+02   3.0981607e+00   0.0000000e+00
   1.2820385e+01   5.3800000e+02   3.3885096e+00   0.0000000e+00
   1.2830385e+01   5.3800000e+02   3.6798022e+00   0.0000000e+00
   1.2840385e+01   5.3800000e+02   3.9718388e+00   0.0000000e+00
   1.2850386e+01   5.3700000e+02   4.2644168e+00   0.0000000e+00
   1.2860386e+01   5.3700000e+02   4.5573313e+00   0.0000000e+00
   1.2870386e+01   5.3700000e+02   4.8503747e+00   0.0000000e+00
   1.2880386e+01   5.3700000e+02   5.1433376e+00   0.0000000e+00
   1.2890387e+01   5.3700000e+02   5.4360083e+00   0.0000000e+00
   1.2900387e+01   5.3700000e+02   5.7281733e+00   0.0000000e+00
   1.2910387e+01   5.3600000e+02   6.0196171e+00   0.0000000e+00
   1.2920388e+01   5.3600000e+02   6.3101230e+00   0.0000000e+00
   1.2930388e+01   5.3600000e+02   6.5994725e+00   0.0000000e+00
   1.2940388e+01   5.3600000e+02   6.8874461e+00   0.0000000e+00
   1.2950389e+01   5.3500000e+02   7.1738231e+00   0.0000000e+00
   1.2960389e+01   5.3500000e+02   7.4583818e+00   0.0000000e+00
   1.2970389e+01   5.3500000e+02   7.7408998e+00   0.0000000e+00
   1.2980389e+01   5.3500000e+02   8.0211542e+00   0.0000000e+00
   1.2990390e+01   5.3500000e+02   8.2989215e+00   0.0000000e+00
   1.3000390e+01   5.3500000e+02   8.5739782e+00   0.0000000e+00
   1.3010390e+01   5.3500000e+02   8.8461006e+00   0.0000000e+00
   1.3020391e+01   5.3500000e+02   9.1150653e+00   0.0000000e+00
   1.3030391e+01   5.3500000e+02   9.3806490e+00   0.0000000e+00
   1.3040391e+01   5.3500000e+02   9.6426291e+00   0.0000000e+00
   1.3050392e+01   5.3500000e+02   9.9007836e+00   0.0000000e+00
   1.3060392e+01   5.3500000e+02   1.0154891e+01   0.0000000e+00
   1.3070392e+01   5.3500000e+02   1.0404733e+01   0.0000000e+00
   1.3080392e+01   5.3400000e+02   1.0650088e+01   0.0000000e+00
   1.3090393e+01   5.3500000e+02   1.0890741e+01   0.0000000e+00
   1.3100393e+01   5.3400000e+02   1.1126476e+01   0.0000000e+00
   1.3110393e+01   5.3400000e+02   1.1357079e+01   0.0000000e+00
   1.3120394e+01   5.3400000e+02   1.1582337e+01   0.0000000e+00
   1.3130394e+01   5.3400000e+02   1.1802043e+01   0.0000000e+00
   1.3140394e+01   5.3400000e+02   1.2015988e+01   0.0000000e+00
   1.3150395e+01   5.3400000e+02   1.2223968e+01   0.0000000e+00
   1.3160395e+01   5.3400000e+02   1.2425781e+01   0.0000000e+00
   1.3170395e+01   5.3400000e+02   1.2621229e+01   0.0000000e+00
   1.3180395e+01   5.3400000e+02   1.2810116e+01   0.0000000e+00
   1.3190396e+01   5.3300000e+02   1.2992250e+01   0.0000000e+00
   1.3200396e+01   5.3300000e+02   1.3167443e+01   0.0000000e+00
   1.3210396e+01   5.3400000e+02   1.3335509e+01   0.0000000e+00
   1.3220397e+01   5.3300000e+02   1.3496267e+01   0.0000000e+00
   1.3230397e+01   5.3300000e+02   1.3649542e+01   0.0000000e+00
   1.3240397e+01   5.3300000e+02   1.3795159e+01   0.0000000e+00
   1.3250398e+01   5.3300000e+02   1.3932953e+01   0.0000000e+00
   1.3260398e+01   5.3300000e+02   1.4062757e+01   0.0000000e+00
   1.3270398e+01   5.3400000e+02   1.4184416e+01   0.0000000e+00
   1.3280398e+01   5.3400000e+02   1.4297773e+01   0.0000000e+00
   1.3290399e+01   5.3400000e+02   1.4402682e+01   0.0000000e+00
   1.3300399e+01   5.3400000e+02   1.4498999e+01   0.0000000e+00
   1.3310399e+01   5.3400000e+02   1.4586587e+01   0.0000000e+00
   1.3320400e+01   5.3300000e+02   1.4665312e+01   0.0000000e+00
   1.3330400e+01   5.3300000e+02   1.4735050e+01   0.0000000e+00
   1.3340400e+01   5.3300000e+02   1.4795680e+01   0.0000000e+00
   1.3350401e+01   5.3400000e+02   1.4847087e+01   0.0000000e+00
   1.3360401e+01   5.3300000e+02   1.4889164e+01   0.0000000e+00
   1.3370401e+01   5.3400000e+02   1.4921810e+01   0.0000000e+00
   1.3380401e+01   5.3400000e+02   1.4944928e+01   0.0000000e+00
   1.3390402e+01   5.3400000e+02   1.4958430e+01   0.0000000e+00
   1.3400402e+01   5.3300000e+02   1.4962235e+01   1.0000000e+00
   1.3410402e+01   5.3400000e+02   1.4956269e+01   0.0000000e+00
   1.3420403e+01   5.3400000e+02   1.4940462e+01   0.0000000e+00
   1.3430403e+01   5.3400000e+02   1.4914754e+01   0.0000000e+00
   1.3440403e+01   5.3400000e+02   1.4879092e+01   0.0000000e+00
   1.3450404e+01   5.3400000e+02   1.4833430e+01   0.0000000e+00
   1.3460404e+01   5.3400000e+02   1.4777728e+01   0.0000000e+00
   1.3470404e+01   5.3400000e+02   1.4711955e+01   0.0000000e+00
   1.3480404e+01   5.3300000e+02   1.4636088e+01   0.0000000e+00
   1.3490405e+01   5.3300000e+02   1.4550109e+01   0.0000000e+00
   1.3500405e+01   5.3400000e+02   1.4454011e+01   0.0000000e+00
   1.3510405e+01   5.3400000e+02   1.4347793e+01   0.0000000e+00
   1.3520406e+01   5.3400000e+02   1.4231462e+01   0.0000000e+00
   1.3530406e+01   5.3300000e+02   1.4105032e+01   0.0000000e+00
   1.3540406e+01   5.3400000e+02   1.3968527e+01   0.0000000e+00
   1.3550407e+01   5.3400000e+02   1.3821977e+01   0.0000000e+00
   1.3560407e+01   5.3300000e+02   1.3665422e+01   0.0000000e+00
   1.3570407e+01   5.3300000e+02   1.3498907e+01   0.0000000e+00
   1.3580407e+01   5.3400000e+02   1.3322488e+01   0.0000000e+00
   1.3590408e+01   5.3300000e+02   1.3136228e+01   0.0000000e+00
   1.3600408e+01   5.3300000e+02   1.2940197e+01   0.0000000e+00
   1.3610408e+01   5.3200000e+02   1.2734474e+01   0.0000000e+00
   1.3620409e+01   5.3300000e+02   1.2519146e+01   0.0000000e+00
   1.3630409e+01   5.3300000e+02   1.2294308e+01   0.0000000e+00
   1.3640409e+01   5.3200000e+02   1.2060063e+01   0.0000000e+00
   1.3650410e+01   5.3300000e+02   1.1816521e+01   0.0000000e+00
   1.3660410e+01   5.3300000e+02   1.1563801e+01   0.0000000e+00
   1.3670410e+01   5.3200000e+02   1.1302030e+01   0.0000000e+00
   1.3680410e+01   5.3300000e+02   1.1031342e+01   0.0000000e+00
   1.3690411e+01   5.3300000e+02   1.0751879e+01   0.0000000e+00
   1.3700411e+01   5.3200000e+02   1.0463790e+01   0.0000000e+00
   1.3710411e+01   5.3200000e+02   1.0167234e+01   0.0000000e+00
   1.3720412e+01   5.3300000e+02   9.8623733e+00   0.0000000e+00
   1.3730412e+01   5.3200000e+02   9.5493818e+00   0.0000000e+00
   1.3740412e+01   5.3300000e+02   9.2284383e+00   0.0000000e+00
   1.3750413e+01   5.3300000e+02   8.8997297e+00   0.0000000e+00
   1.3760413e+01   5.3300000e+02   8.5634496e+00   0.0000000e+00
   1.3770413e+01   5.3300000e+02   8.2197987e+00   0.0000000e+00
   1.3780413e+01   5.3400000e+02   7.8689846e+00   0.0000000e+00
   1.3790414e+01   5.3400000e+02   7.5112215e+00   0.0000000e+00
   1.3800414e+01   5.3400000e+02   7.1467303e+00   0.0000000e+00
   1.3810414e+01   5.3400000e+02   6.7757382e+00   0.0000000e+00
   1.3820415e+01   5.3400000e+02   6.3984788e+00   0.0000000e+00
   1.3830415e+01   5.3400000e+02   6.0151916e+00   0.0000000e+00
   1.3840415e+01   5.3400000e+02   5.6261223e+00   0.0000000e+00
   1.3850416e+01   5.3400000e+02   5.2315222e+00   0.0000000e+00
   1.3860416e+01   5.3500000e+02   4.8316481e+00   0.0000000e+00
   1.3870416e+01   5.3500000e+02   4.4267625e+00   0.0000000e+00
   1.3880416e+01   5.3500000e+02   4.0171330e+00   0.0000000e+00
   1.3890417e+01   5.3600000e+02   3.6030320e+00   0.0000000e+00
   1.3900417e+01   5.3600000e+02   3.1847370e+00   0.0000000e+00
   1.3910417e+01   5.3600000e+02   2.7625300e+00   0.0000000e+00
   1.3920418e+01   5.3600000e+02   2.3366973e+00   0.0000000e+00
   1.3930418e+01   5.3600000e+02   1.9075297e+00   0.0000000e+00
   1.3940418e+01   5.3600000e+02   1.4753215e+00   0.0000000e+00
   1.3950419e+01   5.3600000e+02   1.0403711e+00   0.0000000e+00
   1.3960419e+01   5.3700000e+02   6.0298022e-01   0.0000000e+00
   1.3970419e+01   5.3700000e+02   1.6345389e-01   0.0000000e+00
   1.3980419e+01   5.3700000e+02  -2.7789987e-01   0.0000000e+00
   1.3990420e+01   5.3700000e+02  -7.2077024e-01   0.0000000e+00
   1.4000420e+01   5.3700000e+02  -1.1648439e+00   0.0000000e+00
   1.4010420e+01   5.3800000e+02  -1.6098052e+00   0.0000000e+00
   1.4020421e+01   5.3800000e+02  -2.0553367e+00   0.0000000e+00
   1.4030421e+01   5.3800000e+02  -2.5011188e+00   0.0000000e+00
   1.4040421e+01   5.3900000e+02  -2.9468307e+00   0.0000000e+00
   1.4050422e+01   5.3900000e+02  -3.3921504e+00   0.0000000e+00
   1.4060422e+01   5.3900000e+02  -3.8367548e+00   0.0000000e+00
   1.4070422e+01   5.3900000e+02  -4.2803201e+00   0.0000000e+00
   1.4080422e+01   5.3900000e+02  -4.7225222e+00   0.0000000e+00
   1.4090423e+01   5.3900000e+02  -5.1630369e+00   0.0000000e+00
   1.4100423e+01   5.4000000e+02  -5.6015398e+00   0.0000000e+00
   1.4110423e+01   5.4000000e+02  -6.0377073e+00   0.0000000e+00
   1.4120424e+01   5.4000000e+02  -6.4712163e+00   0.0000000e+00
   1.4130424e+01   5.4000000e+02  -6.9017446e+00   0.0000000e+00
   1.4140424e+01   5.4000000e+02  -7.3289713e+00   0.0000000e+00
   1.4150425e+01   5.4100000e+02  -7.7525772e+00   0.0000000e+00
   1.4160425e+01   5.4100000e+02  -8.1722447e+00   0.0000000e+00
   1.4170425e+01   5.4100000e+02  -8.5876583e+00   0.0000000e+00
   1.4180425e+01   5.4100000e+02  -8.9985048e+00   0.0000000e+00
   1.4190426e+01   5.4100000e+02  -9.4044738e+00   0.0000000e+00
   1.4200426e+01   5.4200000e+02  -9.8052577e+00   0.0000000e+00
   1.4210426e+01   5.4100000e+02  -1.0200552e+01   0.0000000e+00
   1.4220427e+01   5.4200000e+02  -1.0590056e+01   0.0000000e+00
   1.4230427e+01   5.4200000e+02  -1.0973473e+01   0.0000000e+00
   1.4240427e+01   5.4200000e+02  -1.1350508e+01   0.0000000e+00
   1.4250428e+01   5.4200000e+02  -1.1720874e+01   0.0000000e+00
   1.4260428e+01   5.4200000e+02  -1.2084286e+01   0.0000000e+00
   1.4270428e+01   5.4300000e+02  -1.2440464e+01   0.0000000e+00
   1.4280428e+01   5.4300000e+02  -1.2789135e+01   0.0000000e+00
   1.4290429e+01   5.4300000e+02  -1.3130027e+01   0.0000000e+00
   1.4300429e+01   5.4300000e+02  -1.3462879e+01   0.0000000e+00
   1.4310429e+01   5.4300000e+02  -1.3787431e+01   0.0000000e+00
   1.4320430e+01   5.4300000e+02  -1.4103433e+01   0.0000000e+00
   1.4330430e+01   5.4300000e+02  -1.4410639e+01   0.0000000e+00
   1.4340430e+01   5.4400000e+02  -1.4708809e+01   0.0000000e+00
   1.4350431e+01   5.4300000e+02  -1.4997712e+01   0.0000000e+00
   1.4360431e+01   5.4300000e+02  -1.5277122e+01   0.0000000e+00
   1.4370431e+01   5.4400000e+02  -1.5546822e+01   0.0000000e+00
   1.4380431e+01   5.4400000e+02  -1.5806600e+01   0.0000000e+00
   1.4390432e+01   5.4400000e+02  -1.6056253e+01   0.0000000e+00
   1.4400432e+01   5.4400000e+02  -1.6295587e+01   0.0000000e+00
   1.4410432e+01   5.4300000e+02  -1.6524414e+01   0.0000000e+00
   1.4420433e+01   5.4300000e+02  -1.6742556e+01   0.0000000e+00
   1.4430433e+01   5.4300000e+02  -1.6949840e+01   0.0000000e+00
   1.4440433e+01   5.4400000e+02  -1.7146107e+01   0.0000000e+00
   1.4450434e+01   5.4400000e+02  -1.7331201e+01   0.0000000e+00
   1.4460434e+01   5.4400000e+02  -1.7504980e+01   0.0000000e+00
   1.4470434e+01   5.4400000e+02  -1.7667306e+01   0.0000000e+00
   1.4480434e+01   5.4300000e+02  -1.7818055e+01   0.0000000e+00
   1.4490435e+01   5.4300000e+02  -1.7957109e+01   0.0000000e+00
   1.4500435e+01   5.4300000e+02  -1.8084361e+01   0.0000000e+00
   1.4510435e+01   5.4300000e+02  -1.8199712e+01   0.0000000e+00
   1.4520436e+01   5.4300000e+02  -1.8303075e+01   0.0000000e+00
   1.4530436e+01   5.4300000e+02  -1.8394372e+01   0.0000000e+00
   1.4540436e+01   5.4300000e+02  -1.8473532e+01   0.0000000e+00
   1.4550437e+01   5.4300000e+02  -1.8540499e+01   0.0000000e+00
   1.4560437e+01   5.4300000e+02  -1.8595223e+01   0.0000000e+00
   1.4570437e+01   5.4300000e+02  -1.8637666e+01   0.0000000e+00
   1.4580437e+01   5.4200000e+02  -1.8667800e+01   0.0000000e+00
   1.4590438e+01   5.4200000e+02  -1.8685606e+01   0.0000000e+00
   1.4600438e+01   5.4200000e+02  -1.8691076e+01   0.0000000e+00
   1.4610438e+01   5.4200000e+02  -1.8684214e+01   0.0000000e+00
   1.4620439e+01   5.4200000e+02  -1.8665032e+01   0.0000000e+00
   1.4630439e+01   5.4200000e+02  -1.8633552e+01   0.0000000e+00
   1.4640439e+01   5.4100000e+02  -1.8589809e+01   0.0000000e+00
   1.4650440e+01   5.4100000e+02  -1.8533846e+01   0.0000000e+00
   1.4660440e+01   5.4100000e+02  -1.8465716e+01   0.0000000e+00
   1.4670440e+01   5.4100000e+02  -1.8385485e+01   0.0000000e+00
   1.4680440e+01   5.4000000e+02  -1.8293227e+01   0.0000000e+00
   1.4690441e+01   5.4000000e+02  -1.8189026e+01   0.0000000e+00
   1.4700441e+01   5.4000000e+02  -1.8072977e+01   0.0000000e+00
   1.4710441e+01   5.4000000e+02  -1.7945185e+01   0.0000000e+00
   1.4720442e+01   5.4000000e+02  -1.7805765e+01   0.0000000e+00
   1.4730442e+01   5.4000000e+02  -1.7654842e+01   0.0000000e+00
   1.4740442e+01   5.3900000e+02  -1.7492549e+01   0.0000000e+00
   1.4750443e+01   5.3900000e+02  -1.7319033e+01   0.0000000e+00
   1.4760443e+01   5.3900000e+02  -1.7134445e+01   0.0000000e+00
   1.4770443e+01   5.3900000e+02  -1.6938950e+01   0.0000000e+00
   1.4780443e+01   5.3900000e+02  -1.6732720e+01   0.0000000e+00
   1.4790444e+01   5.3800000e+02  -1.6515938e+01   0.0000000e+00
   1.4800444e+01   5.3800000e+02  -1.6288793e+01   0.0000000e+00
   1.4810444e+01   5.3800000e+02  -1.6051487e+01   0.0000000e+00
   1.4820445e+01   5.3700000e+02  -1.5804226e+01   0.0000000e+00
   1.4830445e+01   5.3800000e+02  -1.5547229e+01   0.0000000e+00
   1.4840445e+01   5.3700000e+02  -1.5280721e+01   0.0000000e+00
   1.4850446e+01   5.3700000e+02  -1.5004935e+01   0.0000000e+00
   1.4860446e+01   5.3700000e+02  -1.4720112e+01   0.0000000e+00
   1.4870446e+01   5.3700000e+02  -1.4426503e+01   0.0000000e+00
   1.4880446e+01   5.3700000e+02  -1.4124364e+01   0.0000000e+00
   1.4890447e+01   5.3600000e+02  -1.3813958e+01   0.0000000e+00
   1.4900447e+01   5.3600000e+02  -1.3495557e+01   0.0000000e+00
   1.4910447e+01   5.3600000e+02  -1.3169440e+01   0.0000000e+00
   1.4920448e+01   5.3600000e+02  -1.2835890e+01   0.0000000e+00
   1.4930448e+01   5.3600000e+02  -1.2495199e+01   0.0000000e+00
   1.4940448e+01   5.3600000e+02  -1.2147663e+01   0.0000000e+00
   1.4950449e+01   5.3600000e+02  -1.1793585e+01   0.0000000e+00
   1.4960449e+01   5.3500000e+02  -1.1433274e+01   0.0000000e+00
   1.4970449e+01   5.3600000e+02  -1.1067042e+01   0.0000000e+00
   1.4980449e+01   5.3600000e+02  -1.0695209e+01   0.0000000e+00
   1.4990450e+01   5.3500000e+02  -1.0318098e+01   0.0000000e+00
   1.5000450e+01   5.3500000e+02  -9.9360355e+00   0.0000000e+00
   1.5010450e+01   5.3500000e+02  -9.5493537e+00   0.0000000e+00
   1.5020451e+01   5.3500000e+02  -9.1583878e+00   0.0000000e+00
   1.5030451e+01   5.3500000e+02  -8.7634765e+00   0.0000000e+00
   1.5040451e+01   5.3500000e+02  -8.3649617e+00   0.0000000e+00
   1.5050452e+01   5.3500000e+02  -7.9631882e+00   0.0000000e+00
   1.5060452e+01   5.3400000e+02  -7.5585030e+00   0.0000000e+00
   1.5070452e+01   5.3400000e+02  -7.1512556e+00   0.0000000e+00
   1.5080452e+01   5.3400000e+02  -6.7417971e+00   0.0000000e+00
   1.5090453e+01   5.3400000e+02  -6.3304803e+00   0.0000000e+00
   1.5100453e+01   5.3400000e+02  -5.9176591e+00   0.0000000e+00
   1.5110453e+01   5.3300000e+02  -5.5036881e+00   0.0000000e+00
   1.5120454e+01   5.3300000e+02  -5.0889225e+00   0.0000000e+00
   1.5130454e+01   5.3200000e+02  -4.6737178e+00   0.0000000e+00
   1.5140454e+01   5.3300000e+02  -4.2584292e+00   0.0000000e+00
   1.5150455e+01   5.3200000e+02  -3.8434114e+00   0.0000000e+00
   1.5160455e+01   5.3200000e+02  -3.4290183e+00   0.0000000e+00
   1.5170455e+01   5.3200000e+02  -3.0156024e+00   0.0000000e+00
   1.5180455e+01   5.3100000e+02  -2.6035151e+00   0.0000000e+00
   1.5190456e+01   5.3200000e+02  -2.1931056e+00   0.0000000e+00
   1.5200456e+01   5.3100000e+02  -1.7847210e+00   0.0000000e+00
   1.5210456e+01   5.3100000e+02  -1.3787058e+00   0.0000000e+00
   1.5220457e+01   5.3100000e+02  -9.7540172e-01   0.0000000e+00
   1.5230457e+01   5.3000000e+02  -5.7514732e-01   0.0000000e+00
   1.5240457e+01   5.3000000e+02  -1.7827754e-01   0.0000000e+00
   1.5250458e+01   5.2900000e+02   2.1487648e-01   0.0000000e+00
   1.5260458e+01   5.2900000e+02   6.0398780e-01   0.0000000e+00
   1.5270458e+01   5.2900000e+02   9.8873393e-01   0.0000000e+00
   1.5280458e+01   5.2900000e+02   1.3687972e+00   0.0000000e+00
   1.5290459e+01   5.2900000e+02   1.7438652e+00   0.0000000e+00
   1.5300459e+01   5.2800000e+02   2.1136306e+00   0.0000000e+00
   1.5310459e+01   5.2800000e+02   2.4777921e+00   0.0000000e+00
   1.5320460e+01   5.2700000e+02   2.8360543e+00   0.0000000e+00
   1.5330460e+01   5.2700000e+02   3.1881282e+00   0.0000000e+00
   1.5340460e+01   5.2700000e+02   3.5337312e+00   0.0000000e+00
   1.5350461e+01   5.2700000e+02   3.8725879e+00   0.0000000e+00
   1.5360461e+01   5.2700000e+02   4.2044296e+00   0.0000000e+00
   1.5370461e+01   5.2700000e+02   4.5289955e+00   0.0000000e+00
   1.5380461e+01   5.2600000e+02   4.8460320e+00   0.0000000e+00
   1.5390462e+01   5.2700000e+02   5.1552939e+00   0.0000000e+00
   1.5400462e+01   5.2600000e+02   5.4565438e+00   0.0000000e+00
   1.5410462e+01   5.2600000e+02   5.7495528e+00   0.0000000e+00
   1.5420463e+01   5.2600000e+02   6.0341008e+00   0.0000000e+00
   1.5430463e+01   5.2500000e+02   6.3099763e+00   0.0000000e+00
   1.5440463e+01   5.2500000e+02   6.5769771e+00   0.0000000e+00
   1.5450464e+01   5.2500000e+02   6.8349101e+00   0.0000000e+00
   1.5460464e+01   5.2500000e+02   7.0835917e+00   0.0000000e+00
   1.5470464e+01   5.2500000e+02   7.3228480e+00   0.0000000e+00
   1.5480464e+01   5.2400000e+02   7.5525150e+00   0.0000000e+00
   1.5490465e+01   5.2500000e+02   7.7724384e+00   0.0000000e+00
   1.5500465e+01   5.2400000e+02   7.9824745e+00   0.0000000e+00
   1.5510465e+01   5.2400000e+02   8.1824894e+00   0.0000000e+00
   1.5520466e+01   5.2400000e+02   8.3723600e+00   0.0000000e+00
   1.5530466e+01   5.2400000e+02   8.5519737e+00   0.0000000e+00
   1.5540466e+01   5.2400000e+02   8.7212283e+00   0.0000000e+00
   1.5550467e+01   5.2400000e+02   8.8800327e+00   0.0000000e+00
   1.5560467e+01   5.2400000e+02   9.0283066e+00   0.0000000e+00
   1.5570467e+01   5.2400000e+02   9.1659804e+00   0.0000000e+00
   1.5580467e+01   5.2400000e+02   9.2929960e+00   0.0000000e+00
   1.5590468e+01   5.2400000e+02   9.4093059e+00   0.0000000e+00
   1.5600468e+01   5.2400000e+02   9.5148741e+00   0.0000000e+00
   1.5610468e+01   5.2400000e+02   9.6096756e+00   0.0000000e+00
   1.5620469e+01   5.2300000e+02   9.6936967e+00   0.0000000e+00
   1.5630469e+01   5.2400000e+02   9.7669347e+00   0.0000000e+00
   1.5640469e+01   5.2400000e+02   9.8293984e+00   0.0000000e+00
   1.5650470e+01   5.2300000e+02   9.8811078e+00   0.0000000e+00
   1.5660470e+01   5.2300000e+02   9.9220939e+00   0.0000000e+00
   1.5670470e+01   5.2300000e+02   9.9523990e+00   0.0000000e+00
   1.5680470e+01   5.2400000e+02   9.9720766e+00   0.0000000e+00
   1.5690471e+01   5.2300000e+02   9.9811911e+00   0.0000000e+00
   1.5700471e+01   5.2400000e+02   9.9798181e+00   0.0000000e+00
   1.5710471e+01   5.2300000e+02   9.9680441e+00   0.0000000e+00
   1.5720472e+01   5.2300000e+02   9.9459663e+00   0.0000000e+00
   1.5730472e+01   5.2400000e+02   9.9136929e+00   0.0000000e+00
   1.5740472e+01   5.2400000e+02   9.8713425e+00   0.0000000e+00
   1.5750473e+01   5.2300000e+02   9.8190445e+00   0.0000000e+00
   1.5760473e+01   5.2300000e+02   9.7569385e+00   0.0000000e+00
   1.5770473e+01   5.2300000e+02   9.6851745e+00   0.0000000e+00
   1.5780473e+01   5.2300000e+02   9.6039123e+00   0.0000000e+00
   1.5790474e+01   5.2300000e+02   9.5133221e+00   0.0000000e+00
   1.5800474e+01   5.2300000e+02   9.4135836e+00   0.0000000e+00
   1.5810474e+01   5.2300000e+02   9.3048860e+00   0.0000000e+00
   1.5820475e+01   5.2300000e+02   9.1874282e+00   0.0000000e+00
   1.5830475e+01   5.2300000e+02   9.0614180e+00   0.0000000e+00
   1.5840475e+01   5.2200000e+02   8.9270723e+00   0.0000000e+00
   1.5850476e+01   5.2300000e+02   8.7846168e+00   0.0000000e+00
   1.5860476e+01   5.2300000e+02   8.6342856e+00   0.0000000e+00
   1.5870476e+01   5.2300000e+02   8.4763211e+00   0.0000000e+00
   1.5880476e+01   5.2300000e+02   8.3109739e+00   0.0000000e+00
   1.5890477e+01   5.2300000e+02   8.1385021e+00   0.0000000e+00
   1.5900477e+01   5.2300000e+02   7.9591716e+00   0.0000000e+00
   1.5910477e+01   5.2300000e+02   7.7732553e+00   0.0000000e+00
   1.5920478e+01   5.2300000e+02   7.5810331e+00   0.0000000e+00
   1.5930478e+01   5.2300000e+02   7.3827915e+00   0.0000000e+00
   1.5940478e+01   5.2200000e+02   7.1788237e+00   0.0000000e+00
   1.5950479e+01   5.2300000e+02   6.9694284e+00   0.0000000e+00
   1.5960479e+01   5.2300000e+02   6.7549104e+00   0.0000000e+00
   1.5970479e+01   5.2300000e+02   6.5355799e+00   0.0000000e+00
   1.5980479e+01   5.2200000e+02   6.3117521e+00   0.0000000e+00
   1.5990480e+01   5.2300000e+02   6.0837471e+00   0.0000000e+00
   1.6000480e+01   5.2300000e+02   5.8518891e+00   0.0000000e+00
   1.6010480e+01   5.2300000e+02   5.6165068e+00   0.0000000e+00
   1.6020481e+01   5.2300000e+02   5.3779325e+00   0.0000000e+00
   1.6030481e+01   5.2200000e+02   5.1365017e+00   0.0000000e+00
   1.6040481e+01   5.2200000e+02   4.8925533e+00   0.0000000e+00
   1.6050482e+01   5.2200000e+02   4.6464285e+00   0.0000000e+00
   1.6060482e+01   5.2200000e+02   4.3984711e+00   0.0000000e+00
   1.6070482e+01   5.2200000e+02   4.1490268e+00   0.0000000e+00
   1.6080482e+01   5.2200000e+02   3.8984429e+00   0.0000000e+00
   1.6090483e+01   5.2200000e+02   3.6470678e+00   0.0000000e+00
   1.6100483e+01   5.2200000e+02   3.3952508e+00   0.0000000e+00
   1.6110483e+01   5.2200000e+02   3.1433418e+00   0.0000000e+00
   1.6120484e+01   5.2100000e+02   2.8916908e+00   0.0000000e+00
   1.6130484e+01   5.2200000e+02   2.6406474e+00   0.0000000e+00
   1.6140484e+01   5.2100000e+02   2.3905607e+00   0.0000000e+00
   1.6150485e+01   5.2100000e+02   2.1417786e+00   0.0000000e+00
   1.6160485e+01   5.2200000e+02   1.8946479e+00   0.0000000e+00
   1.6170485e+01   5.2100000e+02   1.6495134e+00   0.0000000e+00
   1.6180485e+01   5.2100000e+02   1.4067179e+00   0.0000000e+00
   1.6190486e+01   5.2200000e+02   1.1666017e+00   0.0000000e+00
   1.6200486e+01   5.2100000e+02   9.2950220e-01   0.0000000e+00
   1.6210486e+01   5.2100000e+02   6.9575358e-01   0.0000000e+00
   1.6220487e+01   5.2200000e+02   4.6568644e-01   0.0000000e+00
   1.6230487e+01   5.2200000e+02   2.3962746e-01   0.0000000e+00
   1.6240487e+01   5.2100000e+02   1.7898983e-02   0.0000000e+00
   1.6250488e+01   5.2200000e+02  -1.9918128e-01   0.0000000e+00
   1.6260488e+01   5.2100000e+02  -4.1130061e-01   0.0000000e+00
   1.6270488e+01   5.2200000e+02  -6.1815164e-01   0.0000000e+00
   1.6280488e+01   5.2200000e+02  -8.1943268e-01   0.0000000e+00
   1.6290489e+01   5.2200000e+02  -1.0148480e+00   0.0000000e+00
   1.6300489e+01   5.2200000e+02  -1.2041083e+00   0.0000000e+00
   1.6310489e+01   5.2200000e+02  -1.3869309e+00   0.0000000e+00
   1.6320490e+01   5.2200000e+02  -1.5630399e+00   0.0000000e+00
   1.6330490e+01   5.2200000e+02  -1.7321670e+00   0.0000000e+00
   1.6340490e+01   5.2200000e+02  -1.8940511e+00   0.0000000e+00
   1.6350491e+01   5.2100000e+02  -2.0484394e+00   0.0000000e+00
   1.6360491e+01   5.2200000e+02  -2.1950868e+00   0.0000000e+00
   1.6370491e+01   5.2200000e+02  -2.3337568e+00   0.0000000e+00
   1.6380491e+01   5.2200000e+02  -2.4642218e+00   0.0000000e+00
   1.6390492e+01   5.2200000e+02  -2.5862628e+00   0.0000000e+00
   1.6400492e+01   5.2200000e+02  -2.6996701e+00   0.0000000e+00
   1.6410492e+01   5.2200000e+02  -2.8042435e+00   0.0000000e+00
   1.6420493e+01   5.2200000e+02  -2.8997924e+00   0.0000000e+00
   1.6430493e+01   5.2200000e+02  -2.9861363e+00   0.0000000e+00
   1.6440493e+01   5.2200000e+02  -3.0631043e+00   0.0000000e+00
   1.6450494e+01   5.2200000e+02  -3.1305364e+00   0.0000000e+00
   1.6460494e+01   5.2300000e+02  -3.1882825e+00   0.0000000e+00
   1.6470494e+01   5.2300000e+02  -3.2362037e+00   0.0000000e+00
   1.6480494e+01   5.2200000e+02  -3.2741715e+00   0.0000000e+00
   1.6490495e+01   5.2300000e+02  -3.3020687e+00   0.0000000e+00
   1.6500495e+01   5.2300000e+02  -3.3197889e+00   0.0000000e+00
   1.6510495e+01   5.2300000e+02  -3.3272375e+00   0.0000000e+00
   1.6520496e+01   5.2300000e+02  -3.3243306e+00   0.0000000e+00
   1.6530496e+01   5.2300000e+02  -3.3109965e+00   0.0000000e+00
   1.6540496e+01   5.2300000e+02  -3.2871745e+00   0.0000000e+00
   1.6550497e+01   5.2300000e+02  -3.2528161e+00   0.0000000e+00
   1.6560497e+01   5.2400000e+02  -3.2078841e+00   0.0000000e+00
   1.6570497e+01   5.2400000e+02  -3.1523535e+00   0.0000000e+00
   1.6580497e+01   5.2400000e+02  -3.0862111e+00   0.0000000e+00
   1.6590498e+01   5.2400000e+02  -3.0094554e+00   0.0000000e+00
   1.6600498e+01   5.2400000e+02  -2.9220971e+00   0.0000000e+00
   1.6610498e+01   5.2500000e+02  -2.8241587e+00   0.0000000e+00
   1.6620499e+01   5.2500000e+02  -2.7156747e+00   0.0000000e+00
   1.6630499e+01   5.2600000e+02  -2.5966917e+00   0.0000000e+00
   1.6640499e+01   5.2600000e+02  -2.4672680e+00   0.0000000e+00
   1.6650500e+01   5.2500000e+02  -2.3274739e+00   0.0000000e+00
   1.6660500e+01   5.2600000e+02  -2.1773915e+00   0.0000000e+00
   1.6670500e+01   5.2600000e+02  -2.0171148e+00   0.0000000e+00
   1.6680500e+01   5.2600000e+02  -1.8467494e+00   0.0000000e+00
   1.6690501e+01   5.2700000e+02  -1.6664124e+00   0.0000000e+00
   1.6700501e+01   5.2700000e+02  -1.4762326e+00   0.0000000e+00
   1.6710501e+01   5.2700000e+02  -1.2763503e+00   0.0000000e+00
   1.6720502e+01   5.2700000e+02  -1.0669169e+00   0.0000000e+00
   1.6730502e+01   5.2700000e+02  -8.4809503e-01   0.0000000e+00
   1.6740502e+01   5.2800000e+02  -6.2005829e-01   0.0000000e+00
   1.6750503e+01   5.2800000e+02  -3.8299121e-01   0.0000000e+00
   1.6760503e+01   5.2800000e+02  -1.3708897e-01   0.0000000e+00
   1.6770503e+01   5.2900000e+02   1.1744273e-01   0.0000000e+00
   1.6780503e+01   5.2900000e+02   3.8038788e-01   0.0000000e+00
   1.6790504e+01   5.2900000e+02   6.5152036e-01   0.0000000e+00
   1.6800504e+01   5.2900000e+02   9.3060412e-01   0.0000000e+00
   1.6810504e+01   5.2900000e+02   1.2173934e+00   0.0000000e+00
   1.6820505e+01   5.3000000e+02   1.5116332e+00   0.0000000e+00
   1.6830505e+01   5.3000000e+02   1.8130590e+00   0.0000000e+00
   1.6840505e+01   5.3000000e+02   2.1213975e+00   0.0000000e+00
   1.6850506e+01   5.3100000e+02   2.4363667e+00   0.0000000e+00
   1.6860506e+01   5.3100000e+02   2.7576762e+00   0.0000000e+00
   1.6870506e+01   5.3100000e+02   3.0850274e+00   0.0000000e+00
   1.6880506e+01   5.3100000e+02   3.4181140e+00   0.0000000e+00
   1.6890507e+01   5.3100000e+02   3.7566219e+00   0.0000000e+00
   1.6900507e+01   5.3100000e+02   4.1002299e+00   0.0000000e+00
   1.6910507e+01   5.3100000e+02   4.4486100e+00   0.0000000e+00
   1.6920508e+01   5.3100000e+02   4.8014273e+00   0.0000000e+00
   1.6930508e+01   5.3100000e+02   5.1583409e+00   0.0000000e+00
   1.6940508e+01   5.3100000e+02   5.5190038e+00   0.0000000e+00
   1.6950509e+01   5.3100000e+02   5.8830635e+00   0.0000000e+00
   1.6960509e+01   5.3100000e+02   6.2501620e+00   0.0000000e+00
   1.6970509e+01   5.3200000e+02   6.6199367e+00   0.0000000e+00
   1.6980509e+01   5.3200000e+02   6.9920203e+00   0.0000000e+00
   1.6990510e+01   5.3200000e+02   7.3660413e+00   0.0000000e+00
   1.7000510e+01   5.3200000e+02   7.7416245e+00   0.0000000e+00
   1.7010510e+01   5.3200000e+02   8.1183912e+00   0.0000000e+00
   1.7020511e+01   5.3200000e+02   8.4959595e+00   0.0000000e+00
   1.7030511e+01   5.3200000e+02   8.8739452e+00   0.0000000e+00
   1.7040511e+01   5.3200000e+02   9.2519613e+00   0.0000000e+00
   1.7050512e+01   5.3300000e+02   9.6296192e+00   0.0000000e+00
   1.7060512e+01   5.3300000e+02   1.0006529e+01   0.0000000e+00
   1.7070512e+01   5.3300000e+02   1.0382299e+01   0.0000000e+00
   1.7080512e+01   5.3300000e+02   1.0756537e+01   0.0000000e+00
   1.7090513e+01   5.3300000e+02   1.1128850e+01   0.0000000e+00
   1.7100513e+01   5.3300000e+02   1.1498847e+01   0.0000000e+00
   1.7110513e+01   5.3400000e+02   1.1866136e+01   0.0000000e+00
   1.7120514e+01   5.3400000e+02   1.2230324e+01   0.0000000e+00
   1.7130514e+01   5.3400000e+02   1.2591023e+01   0.0000000e+00
   1.7140514e+01   5.3400000e+02   1.2947844e+01   0.0000000e+00
   1.7150515e+01   5.3400000e+02   1.3300400e+01   0.0000000e+00
   1.7160515e+01   5.3400000e+02   1.3648308e+01   0.0000000e+00
   1.7170515e+01   5.3400000e+02   1.3991186e+01   0.0000000e+00
   1.7180515e+01   5.3400000e+02   1.4328656e+01   0.0000000e+00
   1.7190516e+01   5.3400000e+02   1.4660344e+01   0.0000000e+00
   1.7200516e+01   5.3400000e+02   1.4985879e+01   0.0000000e+00
   1.7210516e+01   5.3500000e+02   1.5304895e+01   0.0000000e+00
   1.7220517e+01   5.3500000e+02   1.5617030e+01   0.0000000e+00
   1.7230517e+01   5.3500000e+02   1.5921926e+01   0.0000000e+00
   1.7240517e+01   5.3500000e+02   1.6219234e+01   0.0000000e+00
   1.7250518e+01   5.3500000e+02   1.6508607e+01   0.0000000e+00
   1.7260518e+01   5.3500000e+02   1.6789706e+01   0.0000000e+00
   1.7270518e+01   5.3500000e+02   1.7062197e+01   0.0000000e+00
   1.7280518e+01   5.3500000e+02   1.7325753e+01   0.0000000e+00
   1.7290519e+01   5.3500000e+02   1.7580057e+01   0.0000000e+00
   1.7300519e+01   5.3500000e+02   1.7824795e+01   0.0000000e+00
   1.7310519e+01   5.3500000e+02   1.8059663e+01   0.0000000e+00
   1.7320520e+01   5.3500000e+02   1.8284365e+01   0.0000000e+00
   1.7330520e+01   5.3600000e+02   1.8498613e+01   0.0000000e+00
   1.7340520e+01   5.3600000e+02   1.8702128e+01   0.0000000e+00
   1.7350521e+01   5.3500000e+02   1.8894638e+01   0.0000000e+00
   1.7360521e+01   5.3500000e+02   1.9075883e+01   0.0000000e+00
   1.7370521e+01   5.3500000e+02   1.9245610e+01   0.0000000e+00
   1.7380521e+01   5.3500000e+02   1.9403577e+01   0.0000000e+00
   1.7390522e+01   5.3500000e+02   1.9549552e+01   0.0000000e+00
   1.7400522e+01   5.3500000e+02   1.9683312e+01   0.0000000e+00
   1.7410522e+01   5.3500000e+02   1.9804646e+01   0.0000000e+00
   1.7420523e+01   5.3500000e+02   1.9913351e+01   0.0000000e+00
   1.7430523e+01   5.3500000e+02   2.0009237e+01   0.0000000e+00
   1.7440523e+01   5.3400000e+02   2.0092124e+01   0.0000000e+00
   1.7450524e+01   5.3500000e+02   2.0161844e+01   0.0000000e+00
   1.7460524e+01   5.3500000e+02   2.0218239e+01   0.0000000e+00
   1.7470524e+01   5.3500000e+02   2.0261163e+01   0.0000000e+00
   1.7480524e+01   5.3400000e+02   2.0290482e+01   0.0000000e+00
   1.7490525e+01   5.3400000e+02   2.0306074e+01   0.0000000e+00
   1.7500525e+01   5.3500000e+02   2.0307828e+01   1.0000000e+00
   1.7510525e+01   5.3400000e+02   2.0295644e+01   0.0000000e+00
   1.7520526e+01   5.3500000e+02   2.0269437e+01   0.0000000e+00
   1.7530526e+01   5.3400000e+02   2.0229131e+01   0.0000000e+00
   1.7540526e+01   5.3400000e+02   2.0174664e+01   0.0000000e+00
   1.7550527e+01   5.3400000e+02   2.0105986e+01   0.0000000e+00
   1.7560527e+01   5.3400000e+02   2.0023059e+01   0.0000000e+00
   1.7570527e+01   5.3300000e+02   1.9925857e+01   0.0000000e+00
   1.7580527e+01   5.3300000e+02   1.9814368e+01   0.0000000e+00
   1.7590528e+01   5.3400000e+02   1.9688591e+01   0.0000000e+00
   1.7600528e+01   5.3300000e+02   1.9548537e+01   0.0000000e+00
   1.7610528e+01   5.3400000e+02   1.9394230e+01   0.0000000e+00
   1.7620529e+01   5.3300000e+02   1.9225706e+01   0.0000000e+00
   1.7630529e+01   5.3200000e+02   1.9043014e+01   0.0000000e+00
   1.7640529e+01   5.3300000e+02   1.8846216e+01   0.0000000e+00
   1.7650530e+01   5.3200000e+02   1.8635383e+01   0.0000000e+00
   1.7660530e+01   5.3300000e+02   1.8410601e+01   0.0000000e+00
   1.7670530e+01   5.3200000e+02   1.8171966e+01   0.0000000e+00
   1.7680530e+01   5.3200000e+02   1.7919589e+01   0.0000000e+00
   1.7690531e+01   5.3200000e+02   1.7653590e+01   0.0000000e+00
   1.7700531e+01   5.3200000e+02   1.7374101e+01   0.0000000e+00
   1.7710531e+01   5.3200000e+02   1.7081266e+01   0.0000000e+00
   1.7720532e+01   5.3200000e+02   1.6775240e+01   0.0000000e+00
   1.7730532e+01   5.3200000e+02   1.6456191e+01   0.0000000e+00
   1.7740532e+01   5.3100000e+02   1.6124296e+01   0.0000000e+00
   1.7750533e+01   5.3100000e+02   1.5779743e+01   0.0000000e+00
   1.7760533e+01   5.3100000e+02   1.5422732e+01   0.0000000e+00
   1.7770533e+01   5.3100000e+02   1.5053473e+01   0.0000000e+00
   1.7780533e+01   5.3100000e+02   1.4672185e+01   0.0000000e+00
   1.7790534e+01   5.3100000e+02   1.4279099e+01   0.0000000e+00
   1.7800534e+01   5.3100000e+02   1.3874455e+01   0.0000000e+00
   1.7810534e+01   5.3000000e+02   1.3458502e+01   0.0000000e+00
   1.7820535e+01   5.3100000e+02   1.3031499e+01   0.0000000e+00
   1.7830535e+01   5.3100000e+02   1.2593714e+01   0.0000000e+00
   1.7840535e+01   5.3100000e+02   1.2145425e+01   0.0000000e+00
   1.7850536e+01   5.3000000e+02   1.1686916e+01   0.0000000e+00
   1.7860536e+01   5.3100000e+02   1.1218481e+01   0.0000000e+00
   1.7870536e+01   5.3000000e+02   1.0740422e+01   0.0000000e+00
   1.7880536e+01   5.3000000e+02   1.0253048e+01   0.0000000e+00
   1.7890537e+01   5.3000000e+02   9.7566760e+00   0.0000000e+00
   1.7900537e+01   5.3000000e+02   9.2516301e+00   0.0000000e+00
   1.7910537e+01   5.2900000e+02   8.7382406e+00   0.0000000e+00
   1.7920538e+01   5.2900000e+02   8.2168446e+00   0.0000000e+00
   1.7930538e+01   5.2900000e+02   7.6877854e+00   0.0000000e+00
   1.7940538e+01   5.2900000e+02   7.1514118e+00   0.0000000e+00
   1.7950539e+01   5.2900000e+02   6.6080784e+00   0.0000000e+00
   1.7960539e+01   5.2900000e+02   6.0581447e+00   0.0000000e+00
   1.7970539e+01   5.2900000e+02   5.5019749e+00   0.0000000e+00
   1.7980539e+01   5.2900000e+02   4.9399379e+00   0.0000000e+00
   1.7990540e+01   5.2900000e+02   4.3724064e+00   0.0000000e+00
   1.8000540e+01   5.2800000e+02   3.7997569e+00   0.0000000e+00
   1.8010540e+01   5.2900000e+02   3.2223694e+00   0.0000000e+00
   1.8020541e+01   5.2800000e+02   2.6406267e+00   0.0000000e+00
   1.8030541e+01   5.2900000e+02   2.0549143e+00   0.0000000e+00
   1.8040541e+01   5.2800000e+02   1.4656201e+00   0.0000000e+00
   1.8050542e+01   5.2800000e+02   8.7313371e-01   0.0000000e+00
   1.8060542e+01   5.2800000e+02   2.7784647e-01   0.0000000e+00
   1.8070542e+01   5.2800000e+02  -3.1984919e-01   0.0000000e+00
   1.8080542e+01   5.2800000e+02  -9.1955998e-01   0.0000000e+00
   1.8090543e+01   5.2700000e+02  -1.5208921e+00   0.0000000e+00
   1.8100543e+01   5.2700000e+02  -2.1234518e+00   0.0000000e+00
   1.8110543e+01   5.2700000e+02  -2.7268454e+00   0.0000000e+00
   1.8120544e+01   5.2800000e+02  -3.3306799e+00   0.0000000e+00
   1.8130544e+01   5.2700000e+02  -3.9345634e+00   0.0000000e+00
   1.8140544e+01   5.2700000e+02  -4.5381050e+00   0.0000000e+00
   1.8150545e+01   5.2700000e+02  -5.1409158e+00   0.0000000e+00
   1.8160545e+01   5.2700000e+02  -5.7426089e+00   0.0000000e+00
   1.8170545e+01   5.2700000e+02  -6.3427994e+00   0.0000000e+00
   1.8180545e+01   5.2600000e+02  -6.9411056e+00   0.0000000e+00
   1.8190546e+01   5.2600000e+02  -7.5371485e+00   0.0000000e+00
   1.8200546e+01   5.2600000e+02  -8.1305525e+00   0.0000000e+00
   1.8210546e+01   5.2600000e+02  -8.7209459e+00   0.0000000e+00
   1.8220547e+01   5.2600000e+02  -9.3079607e+00   0.0000000e+00
   1.8230547e+01   5.2600000e+02  -9.8912335e+00   0.0000000e+00
   1.8240547e+01   5.2600000e+02  -1.0470405e+01   0.0000000e+00
   1.8250548e+01   5.2600000e+02  -1.1045122e+01   0.0000000e+00
   1.8260548e+01   5.2600000e+02  -1.1615036e+01   0.0000000e+00
   1.8270548e+01   5.2500000e+02  -1.2179802e+01   0.0000000e+00
   1.8280548e+01   5.2500000e+02  -1.2739085e+01   0.0000000e+00
   1.8290549e+01   5.2500000e+02  -1.3292551e+01   0.0000000e+00
   1.8300549e+01   5.2500000e+02  -1.3839878e+01   0.0000000e+00
   1.8310549e+01   5.2500000e+02  -1.4380745e+01   0.0000000e+00
   1.8320550e+01   5.2500000e+02  -1.4914841e+01   0.0000000e+00
   1.8330550e+01   5.2500000e+02  -1.5441863e+01   0.0000000e+00
   1.8340550e+01   5.2400000e+02  -1.5961512e+01   0.0000000e+00
   1.8350551e+01   5.2400000e+02  -1.6473500e+01   0.0000000e+00
   1.8360551e+01   5.2400000e+02  -1.6977544e+01   0.0000000e+00
   1.8370551e+01   5.2400000e+02  -1.7473369e+01   0.0000000e+00
   1.8380551e+01   5.2400000e+02  -1.7960712e+01   0.0000000e+00
   1.8390552e+01   5.2400000e+02  -1.8439313e+01   0.0000000e+00
   1.8400552e+01   5.2400000e+02  -1.8908925e+01   0.0000000e+00
   1.8410552e+01   5.2400000e+02  -1.9369306e+01   0.0000000e+00
   1.8420553e+01   5.2300000e+02  -1.9820225e+01   0.0000000e+00
   1.8430553e+01   5.2400000e+02  -2.0261460e+01   0.0000000e+00
   1.8440553e+01   5.2300000e+02  -2.0692798e+01   0.0000000e+00
   1.8450554e+01   5.2300000e+02  -2.1114033e+01   0.0000000e+00
