# OpenSignals Text File Format. Version 1
# {"20:18:05:28:47:04": {"position": 0, "device": "bitalino_rev", "device name": "20:18:05:28:47:04", "device connection": "BTH20:18:05:28:47:04", "sampling rate": 1000, "resolution": [4, 1, 1, 1, 1, 10, 10], "firmware version": 1281, "comments": "", "keywords": "", "mode": 0, "sync interval": 2, "date": "2021-3-24", "time": "16:9:5.206", "channels": [1, 2], "sensor": ["ECGBIT", "RESPBIT"], "label": ["A1", "A2"], "column": ["nSeq", "I1", "I2", "O1", "O2", "A1", "A2"], "special": [{}, {}], "digital IO": [0, 0, 1, 1]}}
# EndOfHeader
0	0	0	0	0	513	524	
1	0	0	0	0	514	524	
2	0	0	0	0	515	524	
3	0	0	0	0	516	524	
4	0	0	0	0	517	524	
5	0	0	0	0	518	524	
6	0	0	0	0	516	524	
7	0	0	0	0	514	524	
8	0	0	0	0	512	524	
9	0	0	0	0	509	524	
10	0	0	0	0	505	524	
11	0	0	0	0	500	524	
12	0	0	0	0	498	524	
13	0	0	0	0	496	524	
14	0	0	0	0	495	524	
15	0	0	0	0	497	524	
0	0	0	0	0	501	524	
1	0	0	0	0	504	524	
2	0	0	0	0	508	524	
3	0	0	0	0	510	524	
4	0	0	0	0	513	524	
5	0	0	0	0	517	524	
6	0	0	0	0	520	524	
7	0	0	0	0	521	524	
8	0	0	0	0	524	524	
9	0	0	0	0	527	524	
10	0	0	0	0	529	524	
11	0	0	0	0	530	524	
12	0	0	0	0	529	524	
13	0	0	0	0	527	524	
14	0	0	0	0	524	524	
15	0	0	0	0	521	524	
0	0	0	0	0	520	524	
1	0	0	0	0	519	524	
2	0	0	0	0	521	524	
3	0	0	0	0	522	524	
4	0	0	0	0	522	524	
5	0	0	0	0	522	524	
6	0	0	0	0	522	524	
7	0	0	0	0	523	524	
8	0	0	0	0	524	524	
9	0	0	0	0	524	524	
10	0	0	0	0	525	524	
11	0	0	0	0	526	524	
12	0	0	0	0	526	524	
13	0	0	0	0	526	524	
14	0	0	0	0	526	524	
15	0	0	0	0	525	523	
0	0	0	0	0	525	524	
1	0	0	0	0	524	524	
2	0	0	0	0	523	524	
3	0	0	0	0	522	524	
4	0	0	0	0	521	524	
5	0	0	0	0	521	524	
6	0	0	0	0	522	523	
7	0	0	0	0	523	524	
8	0	0	0	0	525	523	
9	0	0	0	0	527	524	
10	0	0	0	0	528	524	
11	0	0	0	0	528	523	
12	0	0	0	0	527	524	
13	0	0	0	0	525	524	
14	0	0	0	0	524	523	
15	0	0	0	0	523	523	
0	0	0	0	0	523	524	
1	0	0	0	0	522	523	
2	0	0	0	0	520	523	
3	0	0	0	0	519	524	
4	0	0	0	0	517	523	
5	0	0	0	0	515	523	
6	0	0	0	0	513	524	
7	0	0	0	0	511	523	
8	0	0	0	0	510	523	
9	0	0	0	0	511	523	
10	0	0	0	0	511	523	
11	0	0	0	0	512	523	
12	0	0	0	0	513	523	
13	0	0	0	0	514	523	
14	0	0	0	0	516	523	
15	0	0	0	0	516	523	
0	0	0	0	0	518	523	
1	0	0	0	0	518	523	
2	0	0	0	0	518	523	
3	0	0	0	0	519	523	
4	0	0	0	0	519	523	
5	0	0	0	0	520	522	
6	0	0	0	0	521	522	
7	0	0	0	0	523	522	
8	0	0	0	0	526	523	
9	0	0	0	0	527	523	
10	0	0	0	0	525	522	
11	0	0	0	0	520	522	
12	0	0	0	0	515	522	
13	0	0	0	0	508	522	
14	0	0	0	0	500	522	
15	0	0	0	0	494	522	
0	0	0	0	0	489	522	
1	0	0	0	0	486	522	
2	0	0	0	0	485	522	
3	0	0	0	0	484	522	
4	0	0	0	0	483	522	
5	0	0	0	0	483	522	
6	0	0	0	0	484	522	
7	0	0	0	0	484	522	
8	0	0	0	0	482	522	
9	0	0	0	0	478	522	
10	0	0	0	0	473	522	
11	0	0	0	0	467	521	
12	0	0	0	0	460	521	
13	0	0	0	0	450	522	
14	0	0	0	0	439	521	
15	0	0	0	0	428	521	
0	0	0	0	0	418	521	
1	0	0	0	0	406	521	
2	0	0	0	0	397	521	
3	0	0	0	0	392	521	
4	0	0	0	0	391	521	
5	0	0	0	0	392	521	
6	0	0	0	0	394	521	
7	0	0	0	0	396	521	
8	0	0	0	0	399	521	
9	0	0	0	0	405	521	
10	0	0	0	0	411	521	
11	0	0	0	0	417	520	
12	0	0	0	0	424	521	
13	0	0	0	0	432	521	
14	0	0	0	0	441	521	
15	0	0	0	0	454	521	
0	0	0	0	0	470	520	
1	0	0	0	0	487	520	
2	0	0	0	0	505	520	
3	0	0	0	0	522	520	
4	0	0	0	0	538	521	
5	0	0	0	0	555	520	
6	0	0	0	0	571	520	
7	0	0	0	0	584	520	
8	0	0	0	0	594	520	
9	0	0	0	0	603	520	
10	0	0	0	0	608	520	
11	0	0	0	0	615	520	
12	0	0	0	0	619	520	
13	0	0	0	0	621	520	
14	0	0	0	0	621	520	
15	0	0	0	0	619	520	
0	0	0	0	0	614	520	
1	0	0	0	0	607	520	
2	0	0	0	0	600	520	
3	0	0	0	0	593	520	
4	0	0	0	0	588	519	
5	0	0	0	0	583	519	
6	0	0	0	0	580	519	
7	0	0	0	0	577	519	
8	0	0	0	0	575	519	
9	0	0	0	0	573	520	
10	0	0	0	0	571	519	
11	0	0	0	0	568	520	
12	0	0	0	0	565	520	
13	0	0	0	0	563	519	
14	0	0	0	0	560	519	
15	0	0	0	0	558	519	
0	0	0	0	0	556	520	
1	0	0	0	0	551	519	
2	0	0	0	0	545	519	
3	0	0	0	0	538	520	
4	0	0	0	0	530	519	
5	0	0	0	0	522	519	
6	0	0	0	0	514	519	
7	0	0	0	0	510	519	
8	0	0	0	0	504	519	
9	0	0	0	0	502	519	
10	0	0	0	0	499	519	
11	0	0	0	0	499	519	
12	0	0	0	0	499	519	
13	0	0	0	0	499	519	
14	0	0	0	0	499	519	
15	0	0	0	0	497	519	
0	0	0	0	0	498	519	
1	0	0	0	0	499	519	
2	0	0	0	0	503	519	
3	0	0	0	0	507	519	
4	0	0	0	0	511	519	
5	0	0	0	0	514	519	
6	0	0	0	0	517	519	
7	0	0	0	0	520	519	
8	0	0	0	0	522	519	
9	0	0	0	0	523	519	
10	0	0	0	0	522	519	
11	0	0	0	0	520	519	
12	0	0	0	0	519	519	
13	0	0	0	0	517	519	
14	0	0	0	0	515	519	
15	0	0	0	0	512	519	
0	0	0	0	0	510	519	
1	0	0	0	0	509	519	
2	0	0	0	0	508	519	
3	0	0	0	0	507	519	
4	0	0	0	0	507	519	
5	0	0	0	0	505	519	
6	0	0	0	0	503	519	
7	0	0	0	0	501	519	
8	0	0	0	0	499	519	
9	0	0	0	0	497	519	
10	0	0	0	0	497	519	
11	0	0	0	0	496	519	
12	0	0	0	0	497	519	
13	0	0	0	0	498	519	
14	0	0	0	0	498	519	
15	0	0	0	0	500	519	
0	0	0	0	0	500	518	
1	0	0	0	0	502	519	
2	0	0	0	0	502	519	
3	0	0	0	0	500	518	
4	0	0	0	0	499	519	
5	0	0	0	0	496	519	
6	0	0	0	0	494	519	
7	0	0	0	0	490	519	
8	0	0	0	0	488	519	
9	0	0	0	0	488	519	
10	0	0	0	0	489	519	
11	0	0	0	0	491	519	
12	0	0	0	0	495	518	
13	0	0	0	0	499	519	
14	0	0	0	0	503	519	
15	0	0	0	0	505	519	
0	0	0	0	0	507	519	
1	0	0	0	0	508	518	
2	0	0	0	0	507	519	
3	0	0	0	0	506	519	
4	0	0	0	0	504	518	
5	0	0	0	0	504	518	
6	0	0	0	0	504	518	
7	0	0	0	0	503	518	
8	0	0	0	0	502	518	
9	0	0	0	0	503	519	
10	0	0	0	0	503	518	
11	0	0	0	0	504	519	
12	0	0	0	0	504	518	
13	0	0	0	0	504	518	
14	0	0	0	0	504	518	
15	0	0	0	0	503	518	
0	0	0	0	0	502	518	
1	0	0	0	0	502	519	
2	0	0	0	0	502	518	
3	0	0	0	0	502	518	
4	0	0	0	0	503	518	
5	0	0	0	0	504	518	
6	0	0	0	0	504	518	
7	0	0	0	0	506	518	
8	0	0	0	0	504	518	
9	0	0	0	0	501	518	
10	0	0	0	0	497	518	
11	0	0	0	0	491	517	
12	0	0	0	0	484	518	
13	0	0	0	0	477	517	
14	0	0	0	0	472	517	
15	0	0	0	0	467	517	
0	0	0	0	0	464	517	
1	0	0	0	0	463	518	
2	0	0	0	0	463	517	
3	0	0	0	0	468	517	
4	0	0	0	0	474	517	
5	0	0	0	0	480	517	
6	0	0	0	0	487	517	
7	0	0	0	0	496	517	
8	0	0	0	0	504	517	
9	0	0	0	0	510	517	
10	0	0	0	0	515	517	
11	0	0	0	0	518	517	
12	0	0	0	0	519	517	
13	0	0	0	0	516	516	
14	0	0	0	0	511	517	
15	0	0	0	0	504	516	
0	0	0	0	0	499	517	
1	0	0	0	0	496	516	
2	0	0	0	0	495	517	
3	0	0	0	0	495	516	
4	0	0	0	0	499	516	
5	0	0	0	0	502	517	
6	0	0	0	0	505	516	
7	0	0	0	0	509	516	
8	0	0	0	0	512	516	
9	0	0	0	0	514	516	
10	0	0	0	0	514	516	
11	0	0	0	0	512	516	
12	0	0	0	0	511	516	
13	0	0	0	0	508	516	
14	0	0	0	0	504	516	
15	0	0	0	0	499	516	
0	0	0	0	0	496	516	
1	0	0	0	0	493	516	
2	0	0	0	0	488	516	
3	0	0	0	0	485	516	
4	0	0	0	0	484	516	
5	0	0	0	0	486	516	
6	0	0	0	0	487	516	
7	0	0	0	0	489	516	
8	0	0	0	0	492	515	
9	0	0	0	0	493	516	
10	0	0	0	0	495	516	
11	0	0	0	0	497	516	
12	0	0	0	0	499	516	
13	0	0	0	0	498	516	
14	0	0	0	0	497	516	
15	0	0	0	0	496	515	
0	0	0	0	0	494	515	
1	0	0	0	0	492	515	
2	0	0	0	0	489	516	
3	0	0	0	0	486	515	
4	0	0	0	0	482	515	
5	0	0	0	0	479	516	
6	0	0	0	0	477	515	
7	0	0	0	0	477	515	
8	0	0	0	0	479	515	
9	0	0	0	0	480	515	
10	0	0	0	0	483	515	
11	0	0	0	0	487	515	
12	0	0	0	0	491	515	
13	0	0	0	0	492	515	
14	0	0	0	0	494	515	
15	0	0	0	0	495	515	
0	0	0	0	0	495	515	
1	0	0	0	0	496	515	
2	0	0	0	0	496	515	
3	0	0	0	0	496	515	
4	0	0	0	0	495	515	
5	0	0	0	0	495	515	
6	0	0	0	0	494	515	
7	0	0	0	0	493	515	
8	0	0	0	0	493	515	
9	0	0	0	0	493	515	
10	0	0	0	0	492	515	
11	0	0	0	0	490	515	
12	0	0	0	0	489	515	
13	0	0	0	0	489	515	
14	0	0	0	0	489	515	
15	0	0	0	0	489	515	
0	0	0	0	0	489	515	
1	0	0	0	0	490	515	
2	0	0	0	0	489	515	
3	0	0	0	0	489	515	
4	0	0	0	0	490	515	
5	0	0	0	0	490	515	
6	0	0	0	0	492	515	
7	0	0	0	0	493	515	
8	0	0	0	0	495	515	
9	0	0	0	0	496	515	
10	0	0	0	0	497	515	
11	0	0	0	0	497	515	
12	0	0	0	0	497	515	
13	0	0	0	0	497	514	
14	0	0	0	0	497	514	
15	0	0	0	0	498	514	
0	0	0	0	0	498	515	
1	0	0	0	0	499	514	
2	0	0	0	0	501	514	
3	0	0	0	0	504	514	
4	0	0	0	0	506	514	
5	0	0	0	0	508	514	
6	0	0	0	0	507	514	
7	0	0	0	0	505	514	
8	0	0	0	0	501	514	
9	0	0	0	0	497	513	
10	0	0	0	0	495	514	
11	0	0	0	0	495	513	
12	0	0	0	0	494	513	
13	0	0	0	0	495	514	
14	0	0	0	0	497	513	
15	0	0	0	0	499	513	
0	0	0	0	0	502	513	
1	0	0	0	0	505	513	
2	0	0	0	0	507	513	
3	0	0	0	0	510	513	
4	0	0	0	0	513	513	
5	0	0	0	0	517	513	
6	0	0	0	0	521	513	
7	0	0	0	0	525	513	
8	0	0	0	0	528	513	
9	0	0	0	0	532	513	
10	0	0	0	0	534	513	
11	0	0	0	0	536	513	
12	0	0	0	0	537	512	
13	0	0	0	0	538	512	
14	0	0	0	0	540	512	
15	0	0	0	0	541	512	
0	0	0	0	0	542	512	
1	0	0	0	0	543	512	
2	0	0	0	0	542	512	
3	0	0	0	0	541	512	
4	0	0	0	0	539	512	
5	0	0	0	0	534	512	
6	0	0	0	0	527	512	
7	0	0	0	0	522	512	
8	0	0	0	0	518	512	
9	0	0	0	0	515	512	
10	0	0	0	0	513	511	
11	0	0	0	0	513	511	
12	0	0	0	0	515	511	
13	0	0	0	0	517	511	
14	0	0	0	0	520	512	
15	0	0	0	0	523	511	
0	0	0	0	0	527	512	
1	0	0	0	0	532	511	
2	0	0	0	0	537	511	
3	0	0	0	0	540	512	
4	0	0	0	0	544	511	
5	0	0	0	0	548	511	
6	0	0	0	0	550	511	
7	0	0	0	0	551	511	
8	0	0	0	0	551	511	
9	0	0	0	0	551	511	
10	0	0	0	0	549	511	
11	0	0	0	0	548	511	
12	0	0	0	0	547	511	
13	0	0	0	0	548	511	
14	0	0	0	0	548	511	
15	0	0	0	0	547	510	
0	0	0	0	0	547	511	
1	0	0	0	0	546	511	
2	0	0	0	0	545	511	
3	0	0	0	0	545	510	
4	0	0	0	0	544	511	
5	0	0	0	0	543	511	
6	0	0	0	0	540	511	
7	0	0	0	0	539	510	
8	0	0	0	0	539	510	
9	0	0	0	0	537	510	
10	0	0	0	0	535	510	
11	0	0	0	0	535	510	
12	0	0	0	0	533	510	
13	0	0	0	0	532	510	
14	0	0	0	0	530	510	
15	0	0	0	0	528	510	
0	0	0	0	0	527	510	
1	0	0	0	0	527	510	
2	0	0	0	0	526	510	
3	0	0	0	0	525	510	
4	0	0	0	0	525	510	
5	0	0	0	0	526	510	
6	0	0	0	0	526	509	
7	0	0	0	0	526	510	
8	0	0	0	0	527	510	
9	0	0	0	0	527	510	
10	0	0	0	0	527	510	
11	0	0	0	0	527	509	
12	0	0	0	0	527	509	
13	0	0	0	0	527	509	
14	0	0	0	0	526	510	
15	0	0	0	0	525	510	
0	0	0	0	0	524	510	
1	0	0	0	0	523	509	
2	0	0	0	0	521	510	
3	0	0	0	0	520	509	
4	0	0	0	0	519	509	
5	0	0	0	0	519	510	
6	0	0	0	0	519	509	
7	0	0	0	0	519	509	
8	0	0	0	0	520	509	
9	0	0	0	0	522	509	
10	0	0	0	0	524	509	
11	0	0	0	0	526	509	
12	0	0	0	0	525	509	
13	0	0	0	0	522	509	
14	0	0	0	0	518	509	
15	0	0	0	0	512	509	
0	0	0	0	0	507	509	
1	0	0	0	0	503	509	
2	0	0	0	0	499	509	
3	0	0	0	0	496	509	
4	0	0	0	0	495	509	
5	0	0	0	0	495	509	
6	0	0	0	0	494	509	
7	0	0	0	0	495	509	
8	0	0	0	0	497	509	
9	0	0	0	0	501	508	
10	0	0	0	0	504	509	
11	0	0	0	0	507	509	
12	0	0	0	0	511	509	
13	0	0	0	0	515	509	
14	0	0	0	0	519	508	
15	0	0	0	0	521	508	
0	0	0	0	0	521	509	
1	0	0	0	0	522	509	
2	0	0	0	0	521	508	
3	0	0	0	0	522	508	
4	0	0	0	0	524	508	
5	0	0	0	0	526	509	
6	0	0	0	0	527	509	
7	0	0	0	0	529	508	
8	0	0	0	0	530	508	
9	0	0	0	0	529	508	
10	0	0	0	0	528	509	
11	0	0	0	0	526	508	
12	0	0	0	0	524	508	
13	0	0	0	0	523	508	
14	0	0	0	0	524	508	
15	0	0	0	0	525	509	
0	0	0	0	0	527	508	
1	0	0	0	0	529	508	
2	0	0	0	0	532	508	
3	0	0	0	0	534	508	
4	0	0	0	0	534	508	
5	0	0	0	0	532	508	
6	0	0	0	0	531	508	
7	0	0	0	0	532	508	
8	0	0	0	0	531	508	
9	0	0	0	0	529	508	
10	0	0	0	0	527	508	
11	0	0	0	0	524	508	
12	0	0	0	0	523	508	
13	0	0	0	0	521	508	
14	0	0	0	0	519	508	
15	0	0	0	0	518	508	
0	0	0	0	0	515	508	
1	0	0	0	0	515	508	
2	0	0	0	0	514	508	
3	0	0	0	0	514	508	
4	0	0	0	0	515	508	
5	0	0	0	0	515	508	
6	0	0	0	0	514	508	
7	0	0	0	0	513	508	
8	0	0	0	0	512	508	
9	0	0	0	0	509	508	
10	0	0	0	0	508	508	
11	0	0	0	0	508	508	
12	0	0	0	0	509	508	
13	0	0	0	0	511	508	
14	0	0	0	0	514	508	
15	0	0	0	0	516	508	
0	0	0	0	0	517	507	
1	0	0	0	0	518	508	
2	0	0	0	0	519	507	
3	0	0	0	0	518	508	
4	0	0	0	0	516	507	
5	0	0	0	0	514	507	
6	0	0	0	0	513	507	
7	0	0	0	0	511	507	
8	0	0	0	0	511	507	
9	0	0	0	0	512	507	
10	0	0	0	0	512	507	
11	0	0	0	0	513	507	
12	0	0	0	0	514	507	
13	0	0	0	0	515	507	
14	0	0	0	0	517	507	
15	0	0	0	0	517	507	
0	0	0	0	0	517	507	
1	0	0	0	0	517	507	
2	0	0	0	0	517	506	
3	0	0	0	0	516	506	
4	0	0	0	0	515	506	
5	0	0	0	0	514	506	
6	0	0	0	0	513	506	
7	0	0	0	0	513	506	
8	0	0	0	0	513	507	
9	0	0	0	0	513	506	
10	0	0	0	0	514	506	
11	0	0	0	0	514	506	
12	0	0	0	0	514	506	
13	0	0	0	0	515	506	
14	0	0	0	0	515	506	
15	0	0	0	0	516	506	
0	0	0	0	0	517	506	
1	0	0	0	0	518	506	
2	0	0	0	0	519	506	
3	0	0	0	0	520	505	
4	0	0	0	0	518	505	
5	0	0	0	0	515	505	
6	0	0	0	0	511	505	
7	0	0	0	0	505	505	
8	0	0	0	0	499	505	
9	0	0	0	0	492	505	
10	0	0	0	0	485	505	
11	0	0	0	0	480	505	
12	0	0	0	0	478	505	
13	0	0	0	0	478	505	
14	0	0	0	0	482	505	
15	0	0	0	0	489	505	
0	0	0	0	0	497	505	
1	0	0	0	0	505	505	
2	0	0	0	0	512	504	
3	0	0	0	0	517	505	
4	0	0	0	0	520	505	
5	0	0	0	0	523	505	
6	0	0	0	0	526	504	
7	0	0	0	0	529	504	
8	0	0	0	0	530	504	
9	0	0	0	0	531	504	
10	0	0	0	0	531	504	
11	0	0	0	0	532	504	
12	0	0	0	0	532	504	
13	0	0	0	0	532	504	
14	0	0	0	0	531	504	
15	0	0	0	0	530	504	
0	0	0	0	0	527	504	
1	0	0	0	0	523	504	
2	0	0	0	0	519	504	
3	0	0	0	0	515	504	
4	0	0	0	0	513	504	
5	0	0	0	0	511	504	
6	0	0	0	0	512	504	
7	0	0	0	0	514	504	
8	0	0	0	0	517	504	
9	0	0	0	0	518	503	
10	0	0	0	0	518	504	
11	0	0	0	0	519	504	
12	0	0	0	0	519	504	
13	0	0	0	0	519	504	
14	0	0	0	0	520	503	
15	0	0	0	0	521	504	
0	0	0	0	0	521	503	
1	0	0	0	0	520	504	
2	0	0	0	0	518	503	
3	0	0	0	0	516	504	
4	0	0	0	0	515	504	
5	0	0	0	0	514	504	
6	0	0	0	0	513	503	
7	0	0	0	0	513	503	
8	0	0	0	0	513	503	
9	0	0	0	0	513	503	
10	0	0	0	0	513	503	
11	0	0	0	0	514	503	
12	0	0	0	0	515	503	
13	0	0	0	0	515	503	
14	0	0	0	0	515	503	
15	0	0	0	0	515	503	
0	0	0	0	0	515	503	
1	0	0	0	0	514	503	
2	0	0	0	0	513	503	
3	0	0	0	0	513	503	
4	0	0	0	0	513	503	
5	0	0	0	0	511	502	
6	0	0	0	0	510	503	
7	0	0	0	0	510	503	
8	0	0	0	0	508	502	
9	0	0	0	0	507	503	
10	0	0	0	0	504	502	
11	0	0	0	0	501	503	
12	0	0	0	0	499	503	
13	0	0	0	0	496	503	
14	0	0	0	0	494	503	
15	0	0	0	0	493	502	
0	0	0	0	0	493	503	
1	0	0	0	0	493	502	
2	0	0	0	0	496	502	
3	0	0	0	0	499	503	
4	0	0	0	0	504	502	
5	0	0	0	0	509	502	
6	0	0	0	0	512	502	
7	0	0	0	0	515	502	
8	0	0	0	0	516	502	
9	0	0	0	0	518	502	
10	0	0	0	0	519	502	
11	0	0	0	0	518	502	
12	0	0	0	0	516	502	
13	0	0	0	0	517	502	
14	0	0	0	0	518	502	
15	0	0	0	0	519	502	
0	0	0	0	0	519	502	
1	0	0	0	0	515	502	
2	0	0	0	0	510	502	
3	0	0	0	0	503	502	
4	0	0	0	0	496	502	
5	0	0	0	0	489	502	
6	0	0	0	0	483	502	
7	0	0	0	0	479	502	
8	0	0	0	0	479	502	
9	0	0	0	0	481	502	
10	0	0	0	0	486	502	
11	0	0	0	0	492	502	
12	0	0	0	0	499	501	
13	0	0	0	0	506	501	
14	0	0	0	0	512	501	
15	0	0	0	0	517	501	
0	0	0	0	0	520	501	
1	0	0	0	0	524	502	
2	0	0	0	0	527	501	
3	0	0	0	0	528	502	
4	0	0	0	0	530	501	
5	0	0	0	0	530	501	
6	0	0	0	0	529	501	
7	0	0	0	0	527	501	
8	0	0	0	0	524	501	
9	0	0	0	0	520	501	
10	0	0	0	0	515	501	
11	0	0	0	0	511	501	
12	0	0	0	0	506	500	
13	0	0	0	0	501	501	
14	0	0	0	0	498	500	
15	0	0	0	0	496	501	
0	0	0	0	0	494	501	
1	0	0	0	0	495	500	
2	0	0	0	0	498	500	
3	0	0	0	0	502	501	
4	0	0	0	0	506	500	
5	0	0	0	0	512	501	
6	0	0	0	0	515	501	
7	0	0	0	0	518	501	
8	0	0	0	0	521	500	
9	0	0	0	0	524	501	
10	0	0	0	0	524	501	
11	0	0	0	0	525	501	
12	0	0	0	0	525	500	
13	0	0	0	0	524	500	
14	0	0	0	0	524	500	
15	0	0	0	0	522	501	
0	0	0	0	0	521	500	
1	0	0	0	0	519	500	
2	0	0	0	0	516	500	
3	0	0	0	0	513	500	
4	0	0	0	0	510	500	
5	0	0	0	0	507	500	
6	0	0	0	0	503	500	
7	0	0	0	0	501	500	
8	0	0	0	0	499	500	
9	0	0	0	0	499	500	
10	0	0	0	0	498	500	
11	0	0	0	0	497	500	
12	0	0	0	0	497	500	
13	0	0	0	0	497	500	
14	0	0	0	0	497	500	
15	0	0	0	0	498	500	
0	0	0	0	0	498	500	
1	0	0	0	0	499	500	
2	0	0	0	0	500	499	
3	0	0	0	0	501	500	
4	0	0	0	0	502	500	
5	0	0	0	0	502	499	
6	0	0	0	0	503	499	
7	0	0	0	0	504	500	
8	0	0	0	0	504	499	
9	0	0	0	0	505	499	
10	0	0	0	0	505	500	
11	0	0	0	0	504	500	
12	0	0	0	0	505	499	
13	0	0	0	0	506	499	
14	0	0	0	0	506	499	
15	0	0	0	0	506	499	
0	0	0	0	0	505	499	
1	0	0	0	0	502	499	
2	0	0	0	0	497	499	
3	0	0	0	0	494	499	
4	0	0	0	0	490	499	
5	0	0	0	0	489	499	
6	0	0	0	0	490	499	
7	0	0	0	0	493	499	
8	0	0	0	0	498	499	
9	0	0	0	0	504	499	
10	0	0	0	0	508	499	
11	0	0	0	0	511	499	
12	0	0	0	0	514	499	
13	0	0	0	0	515	499	
14	0	0	0	0	516	499	
15	0	0	0	0	517	499	
0	0	0	0	0	518	499	
1	0	0	0	0	518	499	
2	0	0	0	0	519	499	
3	0	0	0	0	519	499	
4	0	0	0	0	519	498	
5	0	0	0	0	520	499	
6	0	0	0	0	520	499	
7	0	0	0	0	519	498	
8	0	0	0	0	520	498	
9	0	0	0	0	521	498	
10	0	0	0	0	522	499	
11	0	0	0	0	524	499	
12	0	0	0	0	525	498	
13	0	0	0	0	526	498	
14	0	0	0	0	527	498	
15	0	0	0	0	526	498	
0	0	0	0	0	526	498	
1	0	0	0	0	524	498	
2	0	0	0	0	522	498	
3	0	0	0	0	520	498	
4	0	0	0	0	519	498	
5	0	0	0	0	518	498	
6	0	0	0	0	516	498	
7	0	0	0	0	515	498	
8	0	0	0	0	515	498	
9	0	0	0	0	515	498	
10	0	0	0	0	515	497	
11	0	0	0	0	515	498	
12	0	0	0	0	515	498	
13	0	0	0	0	515	498	
14	0	0	0	0	515	498	
15	0	0	0	0	513	497	
0	0	0	0	0	512	497	
1	0	0	0	0	509	498	
2	0	0	0	0	506	497	
3	0	0	0	0	504	497	
4	0	0	0	0	503	498	
5	0	0	0	0	503	497	
6	0	0	0	0	503	497	
7	0	0	0	0	503	497	
8	0	0	0	0	505	497	
9	0	0	0	0	507	497	
10	0	0	0	0	508	497	
11	0	0	0	0	511	497	
12	0	0	0	0	513	497	
13	0	0	0	0	513	497	
14	0	0	0	0	513	497	
15	0	0	0	0	514	497	
0	0	0	0	0	513	497	
1	0	0	0	0	513	497	
2	0	0	0	0	512	497	
3	0	0	0	0	512	497	
4	0	0	0	0	513	497	
5	0	0	0	0	515	497	
6	0	0	0	0	517	497	
7	0	0	0	0	518	497	
8	0	0	0	0	517	497	
9	0	0	0	0	515	497	
10	0	0	0	0	512	496	
11	0	0	0	0	508	497	
12	0	0	0	0	505	497	
13	0	0	0	0	504	497	
14	0	0	0	0	502	497	
15	0	0	0	0	502	496	
0	0	0	0	0	503	497	
1	0	0	0	0	505	497	
2	0	0	0	0	510	496	
3	0	0	0	0	514	497	
4	0	0	0	0	516	497	
5	0	0	0	0	517	496	
6	0	0	0	0	517	496	
7	0	0	0	0	515	496	
8	0	0	0	0	514	497	
9	0	0	0	0	512	497	
10	0	0	0	0	511	496	
11	0	0	0	0	510	496	
12	0	0	0	0	509	496	
13	0	0	0	0	507	496	
14	0	0	0	0	502	496	
15	0	0	0	0	495	496	
0	0	0	0	0	487	496	
1	0	0	0	0	478	496	
2	0	0	0	0	468	496	
3	0	0	0	0	460	496	
4	0	0	0	0	454	496	
5	0	0	0	0	449	496	
6	0	0	0	0	443	496	
7	0	0	0	0	438	496	
8	0	0	0	0	433	496	
9	0	0	0	0	428	496	
10	0	0	0	0	422	496	
11	0	0	0	0	417	496	
12	0	0	0	0	413	496	
13	0	0	0	0	411	496	
14	0	0	0	0	410	495	
15	0	0	0	0	408	496	
0	0	0	0	0	406	496	
1	0	0	0	0	404	496	
2	0	0	0	0	402	496	
3	0	0	0	0	401	496	
4	0	0	0	0	399	496	
5	0	0	0	0	399	496	
6	0	0	0	0	401	496	
7	0	0	0	0	406	496	
8	0	0	0	0	415	496	
9	0	0	0	0	428	496	
10	0	0	0	0	446	495	
11	0	0	0	0	468	496	
12	0	0	0	0	491	496	
13	0	0	0	0	513	496	
14	0	0	0	0	533	495	
15	0	0	0	0	551	496	
0	0	0	0	0	570	496	
1	0	0	0	0	585	495	
2	0	0	0	0	597	495	
3	0	0	0	0	606	496	
4	0	0	0	0	613	495	
5	0	0	0	0	619	495	
6	0	0	0	0	624	495	
7	0	0	0	0	627	495	
8	0	0	0	0	629	496	
9	0	0	0	0	629	495	
10	0	0	0	0	627	496	
11	0	0	0	0	624	495	
12	0	0	0	0	620	495	
13	0	0	0	0	615	495	
14	0	0	0	0	610	495	
15	0	0	0	0	605	495	
0	0	0	0	0	600	495	
1	0	0	0	0	595	495	
2	0	0	0	0	592	495	
3	0	0	0	0	587	495	
4	0	0	0	0	583	495	
5	0	0	0	0	579	495	
6	0	0	0	0	574	495	
7	0	0	0	0	570	495	
8	0	0	0	0	566	495	
9	0	0	0	0	562	495	
10	0	0	0	0	556	495	
11	0	0	0	0	549	495	
12	0	0	0	0	542	495	
13	0	0	0	0	533	495	
14	0	0	0	0	524	495	
15	0	0	0	0	518	495	
0	0	0	0	0	513	495	
1	0	0	0	0	510	495	
2	0	0	0	0	509	495	
3	0	0	0	0	507	494	
4	0	0	0	0	506	495	
5	0	0	0	0	505	495	
6	0	0	0	0	505	495	
7	0	0	0	0	506	495	
8	0	0	0	0	508	495	
9	0	0	0	0	508	495	
10	0	0	0	0	510	495	
11	0	0	0	0	512	495	
12	0	0	0	0	513	495	
13	0	0	0	0	513	494	
14	0	0	0	0	513	495	
15	0	0	0	0	512	495	
0	0	0	0	0	511	495	
1	0	0	0	0	510	494	
2	0	0	0	0	511	495	
3	0	0	0	0	511	495	
4	0	0	0	0	511	495	
5	0	0	0	0	510	495	
6	0	0	0	0	509	494	
7	0	0	0	0	508	494	
8	0	0	0	0	508	494	
9	0	0	0	0	508	495	
10	0	0	0	0	508	494	
11	0	0	0	0	508	494	
12	0	0	0	0	508	494	
13	0	0	0	0	509	495	
14	0	0	0	0	509	494	
15	0	0	0	0	509	494	
0	0	0	0	0	508	495	
1	0	0	0	0	507	494	
2	0	0	0	0	506	495	
3	0	0	0	0	504	494	
4	0	0	0	0	500	495	
5	0	0	0	0	496	495	
6	0	0	0	0	492	495	
7	0	0	0	0	488	495	
8	0	0	0	0	485	494	
9	0	0	0	0	484	494	
10	0	0	0	0	484	494	
11	0	0	0	0	486	494	
12	0	0	0	0	488	494	
13	0	0	0	0	491	494	
14	0	0	0	0	494	495	
15	0	0	0	0	496	495	
0	0	0	0	0	497	494	
1	0	0	0	0	497	494	
2	0	0	0	0	498	494	
3	0	0	0	0	499	495	
4	0	0	0	0	500	495	
5	0	0	0	0	500	495	
6	0	0	0	0	503	494	
7	0	0	0	0	504	494	
8	0	0	0	0	505	495	
9	0	0	0	0	507	495	
10	0	0	0	0	508	494	
11	0	0	0	0	510	495	
12	0	0	0	0	511	495	
13	0	0	0	0	512	495	
14	0	0	0	0	511	495	
15	0	0	0	0	511	495	
0	0	0	0	0	510	495	
1	0	0	0	0	509	495	
2	0	0	0	0	508	495	
3	0	0	0	0	505	494	
4	0	0	0	0	505	495	
5	0	0	0	0	506	494	
6	0	0	0	0	507	494	
7	0	0	0	0	506	495	
8	0	0	0	0	503	494	
9	0	0	0	0	499	495	
10	0	0	0	0	493	495	
11	0	0	0	0	485	495	
12	0	0	0	0	480	494	
13	0	0	0	0	477	494	
14	0	0	0	0	476	495	
15	0	0	0	0	477	495	
0	0	0	0	0	481	494	
1	0	0	0	0	485	495	
2	0	0	0	0	489	494	
3	0	0	0	0	493	495	
4	0	0	0	0	497	494	
5	0	0	0	0	500	494	
6	0	0	0	0	500	494	
7	0	0	0	0	499	494	
8	0	0	0	0	500	494	
9	0	0	0	0	503	494	
10	0	0	0	0	504	494	
11	0	0	0	0	504	494	
12	0	0	0	0	503	494	
13	0	0	0	0	502	494	
14	0	0	0	0	502	494	
15	0	0	0	0	502	494	
0	0	0	0	0	503	494	
1	0	0	0	0	503	494	
2	0	0	0	0	503	494	
3	0	0	0	0	503	494	
4	0	0	0	0	503	494	
5	0	0	0	0	504	494	
6	0	0	0	0	504	494	
7	0	0	0	0	504	494	
8	0	0	0	0	504	494	
9	0	0	0	0	503	494	
10	0	0	0	0	502	494	
11	0	0	0	0	501	494	
12	0	0	0	0	500	493	
13	0	0	0	0	499	494	
14	0	0	0	0	497	494	
15	0	0	0	0	494	494	
0	0	0	0	0	491	494	
1	0	0	0	0	488	494	
2	0	0	0	0	486	494	
3	0	0	0	0	483	494	
4	0	0	0	0	480	494	
5	0	0	0	0	478	494	
6	0	0	0	0	476	493	
7	0	0	0	0	474	494	
8	0	0	0	0	473	494	
9	0	0	0	0	473	494	
10	0	0	0	0	475	493	
11	0	0	0	0	476	493	
12	0	0	0	0	479	494	
13	0	0	0	0	481	494	
14	0	0	0	0	484	493	
15	0	0	0	0	487	494	
0	0	0	0	0	490	493	
1	0	0	0	0	492	493	
2	0	0	0	0	492	493	
3	0	0	0	0	493	493	
4	0	0	0	0	492	493	
5	0	0	0	0	491	493	
6	0	0	0	0	488	493	
7	0	0	0	0	486	493	
8	0	0	0	0	484	493	
9	0	0	0	0	482	493	
10	0	0	0	0	480	493	
11	0	0	0	0	478	493	
12	0	0	0	0	476	493	
13	0	0	0	0	476	493	
14	0	0	0	0	475	493	
15	0	0	0	0	474	493	
0	0	0	0	0	472	493	
1	0	0	0	0	471	493	
2	0	0	0	0	470	493	
3	0	0	0	0	472	493	
4	0	0	0	0	474	493	
5	0	0	0	0	476	493	
6	0	0	0	0	479	493	
7	0	0	0	0	481	493	
8	0	0	0	0	482	493	
9	0	0	0	0	483	493	
10	0	0	0	0	483	493	
11	0	0	0	0	484	493	
12	0	0	0	0	485	493	
13	0	0	0	0	484	493	
14	0	0	0	0	485	493	
15	0	0	0	0	487	493	
0	0	0	0	0	489	493	
1	0	0	0	0	491	493	
2	0	0	0	0	494	493	
3	0	0	0	0	496	493	
4	0	0	0	0	497	493	
5	0	0	0	0	498	492	
6	0	0	0	0	499	492	
7	0	0	0	0	500	492	
8	0	0	0	0	498	493	
9	0	0	0	0	496	492	
10	0	0	0	0	493	492	
11	0	0	0	0	491	493	
12	0	0	0	0	490	493	
13	0	0	0	0	490	492	
14	0	0	0	0	492	493	
15	0	0	0	0	492	492	
0	0	0	0	0	492	492	
1	0	0	0	0	491	492	
2	0	0	0	0	492	492	
3	0	0	0	0	493	492	
4	0	0	0	0	495	492	
5	0	0	0	0	496	492	
6	0	0	0	0	498	492	
7	0	0	0	0	500	492	
8	0	0	0	0	504	492	
9	0	0	0	0	507	492	
10	0	0	0	0	511	492	
11	0	0	0	0	513	492	
12	0	0	0	0	514	492	
13	0	0	0	0	516	492	
14	0	0	0	0	516	492	
15	0	0	0	0	516	492	
0	0	0	0	0	515	492	
1	0	0	0	0	514	492	
2	0	0	0	0	512	492	
3	0	0	0	0	512	492	
4	0	0	0	0	511	492	
5	0	0	0	0	511	492	
6	0	0	0	0	511	492	
7	0	0	0	0	511	492	
8	0	0	0	0	512	492	
9	0	0	0	0	512	492	
10	0	0	0	0	513	492	
11	0	0	0	0	513	492	
12	0	0	0	0	514	492	
13	0	0	0	0	514	492	
14	0	0	0	0	515	492	
15	0	0	0	0	516	492	
0	0	0	0	0	518	492	
1	0	0	0	0	519	492	
2	0	0	0	0	519	491	
3	0	0	0	0	520	492	
4	0	0	0	0	521	492	
5	0	0	0	0	520	491	
6	0	0	0	0	520	492	
7	0	0	0	0	520	491	
8	0	0	0	0	521	492	
9	0	0	0	0	523	491	
10	0	0	0	0	524	492	
11	0	0	0	0	526	492	
12	0	0	0	0	527	491	
13	0	0	0	0	528	491	
14	0	0	0	0	529	491	
15	0	0	0	0	529	491	
0	0	0	0	0	529	492	
1	0	0	0	0	528	491	
2	0	0	0	0	528	491	
3	0	0	0	0	528	491	
4	0	0	0	0	529	491	
5	0	0	0	0	529	491	
6	0	0	0	0	531	491	
7	0	0	0	0	532	491	
8	0	0	0	0	535	491	
9	0	0	0	0	536	491	
10	0	0	0	0	536	491	
11	0	0	0	0	536	491	
12	0	0	0	0	534	491	
13	0	0	0	0	531	491	
14	0	0	0	0	528	490	
15	0	0	0	0	526	491	
0	0	0	0	0	525	491	
1	0	0	0	0	524	490	
2	0	0	0	0	523	491	
3	0	0	0	0	521	490	
4	0	0	0	0	518	491	
5	0	0	0	0	515	491	
6	0	0	0	0	513	490	
7	0	0	0	0	514	490	
8	0	0	0	0	516	490	
9	0	0	0	0	518	490	
10	0	0	0	0	519	490	
11	0	0	0	0	523	490	
12	0	0	0	0	528	490	
13	0	0	0	0	535	490	
14	0	0	0	0	540	490	
15	0	0	0	0	543	490	
0	0	0	0	0	544	490	
1	0	0	0	0	545	490	
2	0	0	0	0	546	490	
3	0	0	0	0	548	490	
4	0	0	0	0	551	490	
5	0	0	0	0	555	491	
6	0	0	0	0	558	490	
7	0	0	0	0	560	489	
8	0	0	0	0	560	489	
9	0	0	0	0	559	490	
10	0	0	0	0	558	490	
11	0	0	0	0	556	490	
12	0	0	0	0	552	489	
13	0	0	0	0	550	489	
14	0	0	0	0	547	490	
15	0	0	0	0	546	490	
0	0	0	0	0	544	489	
1	0	0	0	0	542	489	
2	0	0	0	0	538	489	
3	0	0	0	0	533	489	
4	0	0	0	0	528	489	
5	0	0	0	0	525	490	
6	0	0	0	0	523	489	
7	0	0	0	0	524	490	
8	0	0	0	0	527	489	
9	0	0	0	0	530	489	
10	0	0	0	0	532	489	
11	0	0	0	0	535	489	
12	0	0	0	0	536	489	
13	0	0	0	0	534	489	
14	0	0	0	0	531	489	
15	0	0	0	0	529	489	
0	0	0	0	0	528	489	
1	0	0	0	0	527	489	
2	0	0	0	0	525	489	
3	0	0	0	0	524	489	
4	0	0	0	0	526	489	
5	0	0	0	0	530	489	
6	0	0	0	0	534	489	
7	0	0	0	0	537	489	
8	0	0	0	0	539	489	
9	0	0	0	0	540	489	
10	0	0	0	0	539	489	
11	0	0	0	0	536	489	
12	0	0	0	0	535	489	
13	0	0	0	0	533	489	
14	0	0	0	0	532	489	
15	0	0	0	0	531	489	
0	0	0	0	0	531	489	
1	0	0	0	0	532	489	
2	0	0	0	0	532	489	
3	0	0	0	0	531	489	
4	0	0	0	0	529	489	
5	0	0	0	0	527	489	
6	0	0	0	0	526	488	
7	0	0	0	0	526	489	
8	0	0	0	0	527	489	
9	0	0	0	0	527	489	
10	0	0	0	0	527	489	
11	0	0	0	0	527	488	
12	0	0	0	0	528	489	
13	0	0	0	0	528	488	
14	0	0	0	0	529	488	
15	0	0	0	0	529	488	
0	0	0	0	0	531	488	
1	0	0	0	0	531	489	
2	0	0	0	0	530	488	
3	0	0	0	0	529	488	
4	0	0	0	0	527	488	
5	0	0	0	0	525	488	
6	0	0	0	0	524	488	
7	0	0	0	0	524	488	
8	0	0	0	0	524	488	
9	0	0	0	0	524	488	
10	0	0	0	0	524	488	
11	0	0	0	0	524	488	
12	0	0	0	0	523	488	
13	0	0	0	0	521	488	
14	0	0	0	0	520	488	
15	0	0	0	0	519	488	
0	0	0	0	0	518	488	
1	0	0	0	0	517	488	
2	0	0	0	0	515	488	
3	0	0	0	0	515	488	
4	0	0	0	0	516	488	
5	0	0	0	0	517	488	
6	0	0	0	0	518	488	
7	0	0	0	0	519	488	
8	0	0	0	0	519	488	
9	0	0	0	0	520	488	
10	0	0	0	0	520	488	
11	0	0	0	0	520	488	
12	0	0	0	0	521	488	
13	0	0	0	0	523	488	
14	0	0	0	0	522	488	
15	0	0	0	0	521	488	
0	0	0	0	0	521	487	
1	0	0	0	0	520	487	
2	0	0	0	0	518	487	
3	0	0	0	0	515	488	
4	0	0	0	0	511	487	
5	0	0	0	0	507	488	
6	0	0	0	0	502	487	
7	0	0	0	0	498	488	
8	0	0	0	0	496	487	
9	0	0	0	0	495	487	
10	0	0	0	0	497	487	
11	0	0	0	0	499	487	
12	0	0	0	0	502	487	
13	0	0	0	0	508	488	
14	0	0	0	0	513	487	
15	0	0	0	0	519	487	
0	0	0	0	0	523	487	
1	0	0	0	0	527	488	
2	0	0	0	0	528	487	
3	0	0	0	0	528	487	
4	0	0	0	0	527	487	
5	0	0	0	0	526	487	
6	0	0	0	0	524	487	
7	0	0	0	0	523	487	
8	0	0	0	0	521	487	
9	0	0	0	0	521	487	
10	0	0	0	0	523	487	
11	0	0	0	0	523	487	
12	0	0	0	0	524	487	
13	0	0	0	0	525	487	
14	0	0	0	0	526	487	
15	0	0	0	0	526	487	
0	0	0	0	0	527	487	
1	0	0	0	0	526	487	
2	0	0	0	0	527	487	
3	0	0	0	0	525	487	
4	0	0	0	0	523	487	
5	0	0	0	0	517	487	
6	0	0	0	0	511	487	
7	0	0	0	0	502	487	
8	0	0	0	0	494	487	
9	0	0	0	0	487	487	
10	0	0	0	0	481	487	
11	0	0	0	0	481	487	
12	0	0	0	0	483	487	
13	0	0	0	0	490	487	
14	0	0	0	0	498	487	
15	0	0	0	0	508	487	
0	0	0	0	0	516	487	
1	0	0	0	0	524	487	
2	0	0	0	0	528	487	
3	0	0	0	0	529	487	
4	0	0	0	0	531	487	
5	0	0	0	0	531	487	
6	0	0	0	0	532	487	
7	0	0	0	0	532	487	
8	0	0	0	0	532	487	
9	0	0	0	0	532	487	
10	0	0	0	0	532	486	
11	0	0	0	0	533	487	
12	0	0	0	0	533	486	
13	0	0	0	0	532	487	
14	0	0	0	0	529	487	
15	0	0	0	0	527	487	
0	0	0	0	0	524	487	
1	0	0	0	0	522	487	
2	0	0	0	0	519	486	
3	0	0	0	0	516	486	
4	0	0	0	0	515	487	
5	0	0	0	0	515	487	
6	0	0	0	0	515	486	
7	0	0	0	0	515	486	
8	0	0	0	0	515	486	
9	0	0	0	0	514	486	
10	0	0	0	0	513	486	
11	0	0	0	0	512	486	
12	0	0	0	0	512	486	
13	0	0	0	0	512	486	
14	0	0	0	0	511	486	
15	0	0	0	0	511	486	
0	0	0	0	0	511	486	
1	0	0	0	0	511	486	
2	0	0	0	0	509	486	
3	0	0	0	0	509	486	
4	0	0	0	0	508	486	
5	0	0	0	0	508	486	
6	0	0	0	0	509	486	
7	0	0	0	0	508	486	
8	0	0	0	0	508	486	
9	0	0	0	0	508	487	
10	0	0	0	0	510	486	
11	0	0	0	0	511	486	
12	0	0	0	0	511	486	
13	0	0	0	0	511	486	
14	0	0	0	0	511	486	
15	0	0	0	0	511	486	
0	0	0	0	0	510	486	
1	0	0	0	0	509	486	
2	0	0	0	0	508	486	
3	0	0	0	0	508	486	
4	0	0	0	0	508	486	
5	0	0	0	0	508	486	
6	0	0	0	0	509	486	
7	0	0	0	0	510	486	
8	0	0	0	0	511	486	
9	0	0	0	0	511	486	
10	0	0	0	0	512	485	
11	0	0	0	0	513	486	
12	0	0	0	0	514	486	
13	0	0	0	0	515	486	
14	0	0	0	0	515	486	
15	0	0	0	0	516	485	
0	0	0	0	0	515	486	
1	0	0	0	0	514	486	
2	0	0	0	0	512	486	
3	0	0	0	0	511	486	
4	0	0	0	0	509	485	
5	0	0	0	0	507	485	
6	0	0	0	0	506	486	
7	0	0	0	0	505	486	
8	0	0	0	0	504	486	
9	0	0	0	0	504	486	
10	0	0	0	0	504	485	
11	0	0	0	0	505	486	
12	0	0	0	0	507	486	
13	0	0	0	0	508	486	
14	0	0	0	0	510	486	
15	0	0	0	0	511	486	
0	0	0	0	0	511	486	
1	0	0	0	0	512	486	
2	0	0	0	0	512	485	
3	0	0	0	0	512	486	
4	0	0	0	0	512	486	
5	0	0	0	0	512	486	
6	0	0	0	0	513	486	
7	0	0	0	0	514	485	
8	0	0	0	0	515	485	
9	0	0	0	0	516	485	
10	0	0	0	0	518	485	
11	0	0	0	0	519	486	
12	0	0	0	0	519	486	
13	0	0	0	0	518	486	
14	0	0	0	0	516	486	
15	0	0	0	0	515	485	
0	0	0	0	0	513	486	
1	0	0	0	0	511	486	
2	0	0	0	0	510	486	
3	0	0	0	0	510	486	
4	0	0	0	0	509	486	
5	0	0	0	0	510	486	
6	0	0	0	0	510	486	
7	0	0	0	0	511	486	
8	0	0	0	0	511	486	
9	0	0	0	0	511	485	
10	0	0	0	0	511	485	
11	0	0	0	0	511	486	
12	0	0	0	0	510	486	
13	0	0	0	0	509	485	
14	0	0	0	0	508	486	
15	0	0	0	0	507	486	
0	0	0	0	0	507	486	
1	0	0	0	0	508	486	
2	0	0	0	0	509	486	
3	0	0	0	0	508	486	
4	0	0	0	0	505	486	
5	0	0	0	0	501	486	
6	0	0	0	0	494	486	
7	0	0	0	0	488	486	
8	0	0	0	0	484	486	
9	0	0	0	0	483	485	
10	0	0	0	0	483	486	
11	0	0	0	0	487	486	
12	0	0	0	0	492	486	
13	0	0	0	0	498	485	
14	0	0	0	0	508	486	
15	0	0	0	0	516	486	
0	0	0	0	0	523	485	
1	0	0	0	0	528	486	
2	0	0	0	0	531	486	
3	0	0	0	0	532	485	
4	0	0	0	0	531	486	
5	0	0	0	0	530	486	
6	0	0	0	0	528	486	
7	0	0	0	0	526	486	
8	0	0	0	0	525	486	
9	0	0	0	0	524	486	
10	0	0	0	0	521	486	
11	0	0	0	0	519	486	
12	0	0	0	0	516	486	
13	0	0	0	0	515	486	
14	0	0	0	0	513	486	
15	0	0	0	0	512	486	
0	0	0	0	0	512	486	
1	0	0	0	0	511	486	
2	0	0	0	0	511	486	
3	0	0	0	0	511	486	
4	0	0	0	0	511	486	
5	0	0	0	0	512	486	
6	0	0	0	0	512	486	
7	0	0	0	0	512	486	
8	0	0	0	0	511	486	
9	0	0	0	0	510	487	
10	0	0	0	0	509	486	
11	0	0	0	0	507	486	
12	0	0	0	0	506	486	
13	0	0	0	0	504	486	
14	0	0	0	0	501	486	
15	0	0	0	0	499	486	
0	0	0	0	0	496	486	
1	0	0	0	0	493	487	
2	0	0	0	0	491	487	
3	0	0	0	0	489	487	
4	0	0	0	0	488	486	
5	0	0	0	0	486	487	
6	0	0	0	0	485	487	
7	0	0	0	0	486	487	
8	0	0	0	0	486	487	
9	0	0	0	0	485	487	
10	0	0	0	0	484	487	
11	0	0	0	0	484	487	
12	0	0	0	0	484	487	
13	0	0	0	0	486	486	
14	0	0	0	0	487	487	
15	0	0	0	0	488	487	
0	0	0	0	0	490	487	
1	0	0	0	0	491	487	
2	0	0	0	0	494	487	
3	0	0	0	0	497	487	
4	0	0	0	0	500	487	
5	0	0	0	0	503	487	
6	0	0	0	0	504	487	
7	0	0	0	0	505	487	
8	0	0	0	0	506	487	
9	0	0	0	0	508	487	
10	0	0	0	0	510	487	
11	0	0	0	0	512	487	
12	0	0	0	0	513	487	
13	0	0	0	0	514	487	
14	0	0	0	0	514	487	
15	0	0	0	0	515	487	
0	0	0	0	0	514	487	
1	0	0	0	0	513	487	
2	0	0	0	0	512	487	
3	0	0	0	0	511	487	
4	0	0	0	0	511	487	
5	0	0	0	0	511	487	
6	0	0	0	0	511	487	
7	0	0	0	0	512	487	
8	0	0	0	0	514	487	
9	0	0	0	0	513	487	
10	0	0	0	0	512	487	
11	0	0	0	0	510	488	
12	0	0	0	0	507	487	
13	0	0	0	0	504	488	
14	0	0	0	0	500	488	
15	0	0	0	0	498	488	
0	0	0	0	0	498	488	
1	0	0	0	0	499	488	
2	0	0	0	0	499	488	
3	0	0	0	0	500	488	
4	0	0	0	0	502	488	
5	0	0	0	0	502	488	
6	0	0	0	0	500	488	
7	0	0	0	0	497	488	
8	0	0	0	0	496	488	
9	0	0	0	0	494	488	
10	0	0	0	0	494	488	
11	0	0	0	0	495	488	
12	0	0	0	0	498	488	
13	0	0	0	0	501	489	
14	0	0	0	0	504	489	
15	0	0	0	0	506	488	
0	0	0	0	0	509	488	
1	0	0	0	0	511	488	
2	0	0	0	0	511	489	
3	0	0	0	0	510	489	
4	0	0	0	0	511	489	
5	0	0	0	0	514	489	
6	0	0	0	0	518	489	
7	0	0	0	0	523	489	
8	0	0	0	0	529	489	
9	0	0	0	0	535	489	
10	0	0	0	0	539	489	
11	0	0	0	0	539	489	
12	0	0	0	0	537	489	
13	0	0	0	0	535	489	
14	0	0	0	0	531	489	
15	0	0	0	0	529	490	
0	0	0	0	0	530	489	
1	0	0	0	0	531	489	
2	0	0	0	0	533	490	
3	0	0	0	0	533	489	
4	0	0	0	0	531	490	
5	0	0	0	0	529	490	
6	0	0	0	0	526	490	
7	0	0	0	0	523	490	
8	0	0	0	0	521	491	
9	0	0	0	0	520	490	
10	0	0	0	0	520	490	
11	0	0	0	0	522	491	
12	0	0	0	0	523	490	
13	0	0	0	0	524	491	
14	0	0	0	0	523	491	
15	0	0	0	0	522	491	
0	0	0	0	0	521	491	
1	0	0	0	0	519	491	
2	0	0	0	0	518	491	
3	0	0	0	0	516	491	
4	0	0	0	0	515	491	
5	0	0	0	0	515	491	
6	0	0	0	0	513	491	
7	0	0	0	0	513	492	
8	0	0	0	0	513	491	
9	0	0	0	0	512	492	
10	0	0	0	0	512	492	
11	0	0	0	0	512	492	
12	0	0	0	0	511	492	
13	0	0	0	0	509	492	
14	0	0	0	0	507	492	
15	0	0	0	0	505	492	
0	0	0	0	0	503	492	
1	0	0	0	0	502	492	
2	0	0	0	0	500	492	
3	0	0	0	0	498	492	
4	0	0	0	0	496	492	
5	0	0	0	0	495	492	
6	0	0	0	0	496	493	
7	0	0	0	0	497	492	
8	0	0	0	0	499	492	
9	0	0	0	0	502	493	
10	0	0	0	0	504	492	
11	0	0	0	0	506	492	
12	0	0	0	0	509	493	
13	0	0	0	0	512	493	
14	0	0	0	0	515	493	
15	0	0	0	0	519	493	
0	0	0	0	0	522	493	
1	0	0	0	0	523	493	
2	0	0	0	0	523	493	
3	0	0	0	0	521	494	
4	0	0	0	0	518	493	
5	0	0	0	0	515	494	
6	0	0	0	0	510	494	
7	0	0	0	0	506	494	
8	0	0	0	0	503	494	
9	0	0	0	0	499	494	
10	0	0	0	0	496	494	
11	0	0	0	0	493	494	
12	0	0	0	0	487	494	
13	0	0	0	0	481	494	
14	0	0	0	0	475	495	
15	0	0	0	0	466	495	
0	0	0	0	0	458	495	
1	0	0	0	0	450	495	
2	0	0	0	0	441	495	
3	0	0	0	0	432	495	
4	0	0	0	0	424	495	
5	0	0	0	0	416	495	
6	0	0	0	0	408	495	
7	0	0	0	0	400	495	
8	0	0	0	0	393	495	
9	0	0	0	0	388	495	
10	0	0	0	0	387	495	
11	0	0	0	0	386	496	
12	0	0	0	0	387	496	
13	0	0	0	0	388	496	
14	0	0	0	0	391	496	
15	0	0	0	0	395	496	
0	0	0	0	0	400	496	
1	0	0	0	0	403	496	
2	0	0	0	0	407	496	
3	0	0	0	0	413	496	
4	0	0	0	0	422	496	
5	0	0	0	0	433	496	
6	0	0	0	0	447	496	
7	0	0	0	0	465	496	
8	0	0	0	0	484	497	
9	0	0	0	0	505	497	
10	0	0	0	0	526	497	
11	0	0	0	0	544	497	
12	0	0	0	0	562	497	
13	0	0	0	0	578	497	
14	0	0	0	0	591	497	
15	0	0	0	0	601	497	
0	0	0	0	0	610	497	
1	0	0	0	0	615	498	
2	0	0	0	0	619	498	
3	0	0	0	0	621	498	
4	0	0	0	0	620	498	
5	0	0	0	0	619	498	
6	0	0	0	0	617	498	
7	0	0	0	0	615	498	
8	0	0	0	0	612	498	
9	0	0	0	0	608	498	
10	0	0	0	0	606	499	
11	0	0	0	0	604	498	
12	0	0	0	0	604	498	
13	0	0	0	0	605	498	
14	0	0	0	0	605	499	
15	0	0	0	0	602	499	
0	0	0	0	0	595	499	
1	0	0	0	0	586	499	
2	0	0	0	0	575	499	
3	0	0	0	0	566	499	
4	0	0	0	0	558	499	
5	0	0	0	0	552	499	
6	0	0	0	0	547	499	
7	0	0	0	0	544	500	
8	0	0	0	0	542	500	
9	0	0	0	0	538	500	
10	0	0	0	0	536	500	
11	0	0	0	0	535	500	
12	0	0	0	0	532	500	
13	0	0	0	0	530	500	
14	0	0	0	0	527	501	
15	0	0	0	0	525	501	
0	0	0	0	0	524	501	
1	0	0	0	0	525	501	
2	0	0	0	0	524	501	
3	0	0	0	0	523	500	
4	0	0	0	0	520	501	
5	0	0	0	0	518	501	
6	0	0	0	0	513	501	
7	0	0	0	0	509	501	
8	0	0	0	0	504	502	
9	0	0	0	0	499	501	
10	0	0	0	0	494	501	
11	0	0	0	0	490	502	
12	0	0	0	0	488	502	
13	0	0	0	0	487	502	
14	0	0	0	0	487	502	
15	0	0	0	0	490	502	
0	0	0	0	0	495	502	
1	0	0	0	0	501	503	
2	0	0	0	0	505	503	
3	0	0	0	0	508	503	
4	0	0	0	0	509	503	
5	0	0	0	0	509	503	
6	0	0	0	0	508	503	
7	0	0	0	0	509	503	
8	0	0	0	0	510	503	
9	0	0	0	0	510	503	
10	0	0	0	0	510	504	
11	0	0	0	0	511	504	
12	0	0	0	0	511	504	
13	0	0	0	0	511	504	
14	0	0	0	0	511	504	
15	0	0	0	0	511	504	
0	0	0	0	0	511	504	
1	0	0	0	0	510	504	
2	0	0	0	0	508	504	
3	0	0	0	0	503	504	
4	0	0	0	0	497	504	
5	0	0	0	0	489	504	
6	0	0	0	0	483	504	
7	0	0	0	0	479	505	
8	0	0	0	0	477	505	
9	0	0	0	0	478	505	
10	0	0	0	0	480	505	
11	0	0	0	0	483	505	
12	0	0	0	0	489	505	
13	0	0	0	0	497	505	
14	0	0	0	0	504	505	
15	0	0	0	0	509	505	
0	0	0	0	0	512	506	
1	0	0	0	0	515	506	
2	0	0	0	0	516	505	
3	0	0	0	0	517	506	
4	0	0	0	0	518	506	
5	0	0	0	0	518	506	
6	0	0	0	0	516	506	
7	0	0	0	0	515	507	
8	0	0	0	0	514	507	
9	0	0	0	0	515	507	
10	0	0	0	0	515	507	
11	0	0	0	0	513	507	
12	0	0	0	0	512	507	
13	0	0	0	0	510	507	
14	0	0	0	0	507	507	
15	0	0	0	0	504	508	
0	0	0	0	0	503	508	
1	0	0	0	0	501	508	
2	0	0	0	0	499	508	
3	0	0	0	0	496	508	
4	0	0	0	0	493	508	
5	0	0	0	0	489	508	
6	0	0	0	0	484	508	
7	0	0	0	0	477	508	
8	0	0	0	0	473	508	
9	0	0	0	0	472	509	
10	0	0	0	0	474	509	
11	0	0	0	0	480	509	
12	0	0	0	0	487	509	
13	0	0	0	0	496	509	
14	0	0	0	0	504	509	
15	0	0	0	0	510	509	
0	0	0	0	0	514	509	
1	0	0	0	0	518	510	
2	0	0	0	0	519	510	
3	0	0	0	0	519	509	
4	0	0	0	0	521	510	
5	0	0	0	0	521	510	
6	0	0	0	0	520	510	
7	0	0	0	0	517	510	
8	0	0	0	0	516	510	
9	0	0	0	0	515	510	
10	0	0	0	0	513	510	
11	0	0	0	0	512	510	
12	0	0	0	0	510	510	
13	0	0	0	0	508	511	
14	0	0	0	0	505	511	
15	0	0	0	0	503	511	
0	0	0	0	0	501	511	
1	0	0	0	0	500	511	
2	0	0	0	0	499	511	
3	0	0	0	0	499	511	
4	0	0	0	0	500	511	
5	0	0	0	0	502	511	
6	0	0	0	0	502	511	
7	0	0	0	0	500	511	
8	0	0	0	0	495	511	
9	0	0	0	0	487	511	
10	0	0	0	0	478	511	
11	0	0	0	0	468	511	
12	0	0	0	0	460	512	
13	0	0	0	0	456	512	
14	0	0	0	0	455	512	
15	0	0	0	0	456	512	
0	0	0	0	0	460	512	
1	0	0	0	0	465	512	
2	0	0	0	0	472	512	
3	0	0	0	0	479	512	
4	0	0	0	0	486	512	
5	0	0	0	0	487	512	
6	0	0	0	0	488	512	
7	0	0	0	0	487	512	
8	0	0	0	0	486	512	
9	0	0	0	0	484	513	
10	0	0	0	0	483	513	
11	0	0	0	0	480	513	
12	0	0	0	0	478	513	
13	0	0	0	0	478	513	
14	0	0	0	0	480	513	
15	0	0	0	0	481	513	
0	0	0	0	0	483	513	
1	0	0	0	0	487	513	
2	0	0	0	0	493	513	
3	0	0	0	0	497	513	
4	0	0	0	0	503	513	
5	0	0	0	0	507	514	
6	0	0	0	0	510	514	
7	0	0	0	0	508	514	
8	0	0	0	0	504	514	
9	0	0	0	0	499	514	
10	0	0	0	0	494	514	
11	0	0	0	0	489	514	
12	0	0	0	0	483	514	
13	0	0	0	0	478	514	
14	0	0	0	0	474	514	
15	0	0	0	0	470	514	
0	0	0	0	0	466	515	
1	0	0	0	0	463	514	
2	0	0	0	0	460	515	
3	0	0	0	0	460	515	
4	0	0	0	0	462	515	
5	0	0	0	0	466	515	
6	0	0	0	0	473	515	
7	0	0	0	0	483	515	
8	0	0	0	0	492	515	
9	0	0	0	0	500	515	
10	0	0	0	0	506	515	
11	0	0	0	0	511	515	
12	0	0	0	0	515	515	
13	0	0	0	0	518	515	
14	0	0	0	0	520	515	
15	0	0	0	0	523	515	
0	0	0	0	0	524	515	
1	0	0	0	0	525	516	
2	0	0	0	0	524	516	
3	0	0	0	0	522	516	
4	0	0	0	0	519	515	
5	0	0	0	0	516	516	
6	0	0	0	0	512	516	
7	0	0	0	0	510	516	
8	0	0	0	0	507	516	
9	0	0	0	0	504	516	
10	0	0	0	0	501	516	
11	0	0	0	0	500	516	
12	0	0	0	0	499	516	
13	0	0	0	0	498	516	
14	0	0	0	0	499	517	
15	0	0	0	0	498	516	
0	0	0	0	0	497	517	
1	0	0	0	0	497	516	
2	0	0	0	0	497	517	
3	0	0	0	0	499	517	
4	0	0	0	0	499	517	
5	0	0	0	0	499	517	
6	0	0	0	0	499	517	
7	0	0	0	0	498	517	
8	0	0	0	0	497	517	
9	0	0	0	0	496	517	
10	0	0	0	0	494	517	
11	0	0	0	0	494	518	
12	0	0	0	0	494	517	
13	0	0	0	0	494	517	
14	0	0	0	0	496	518	
15	0	0	0	0	498	517	
0	0	0	0	0	501	518	
1	0	0	0	0	503	518	
2	0	0	0	0	504	518	
3	0	0	0	0	506	518	
4	0	0	0	0	510	518	
5	0	0	0	0	512	518	
6	0	0	0	0	516	518	
7	0	0	0	0	519	518	
8	0	0	0	0	520	518	
9	0	0	0	0	521	519	
10	0	0	0	0	521	519	
11	0	0	0	0	520	519	
12	0	0	0	0	519	519	
13	0	0	0	0	519	519	
14	0	0	0	0	516	519	
15	0	0	0	0	513	519	
0	0	0	0	0	508	519	
1	0	0	0	0	501	519	
2	0	0	0	0	494	519	
3	0	0	0	0	487	519	
4	0	0	0	0	482	519	
5	0	0	0	0	480	519	
6	0	0	0	0	479	519	
7	0	0	0	0	480	519	
8	0	0	0	0	486	519	
9	0	0	0	0	493	520	
10	0	0	0	0	504	520	
11	0	0	0	0	517	520	
12	0	0	0	0	527	520	
13	0	0	0	0	537	520	
14	0	0	0	0	546	520	
15	0	0	0	0	550	520	
0	0	0	0	0	551	520	
1	0	0	0	0	552	520	
2	0	0	0	0	554	520	
3	0	0	0	0	555	520	
4	0	0	0	0	552	520	
5	0	0	0	0	550	521	
6	0	0	0	0	548	520	
7	0	0	0	0	546	520	
8	0	0	0	0	542	521	
9	0	0	0	0	533	521	
10	0	0	0	0	520	521	
11	0	0	0	0	508	521	
12	0	0	0	0	497	521	
13	0	0	0	0	489	521	
14	0	0	0	0	484	521	
15	0	0	0	0	484	521	
0	0	0	0	0	491	521	
1	0	0	0	0	502	522	
2	0	0	0	0	515	522	
3	0	0	0	0	531	522	
4	0	0	0	0	545	522	
5	0	0	0	0	556	522	
6	0	0	0	0	563	523	
7	0	0	0	0	566	522	
8	0	0	0	0	569	522	
9	0	0	0	0	568	523	
10	0	0	0	0	563	523	
11	0	0	0	0	558	523	
12	0	0	0	0	556	523	
13	0	0	0	0	556	523	
14	0	0	0	0	556	523	
15	0	0	0	0	559	523	
0	0	0	0	0	561	523	
1	0	0	0	0	565	523	
2	0	0	0	0	568	523	
3	0	0	0	0	569	524	
4	0	0	0	0	568	524	
5	0	0	0	0	566	523	
6	0	0	0	0	564	524	
7	0	0	0	0	562	524	
8	0	0	0	0	559	524	
9	0	0	0	0	555	524	
10	0	0	0	0	551	524	
11	0	0	0	0	547	524	
12	0	0	0	0	545	524	
13	0	0	0	0	543	525	
14	0	0	0	0	542	524	
15	0	0	0	0	541	524	
0	0	0	0	0	540	525	
1	0	0	0	0	539	525	
2	0	0	0	0	539	525	
3	0	0	0	0	539	524	
4	0	0	0	0	538	525	
5	0	0	0	0	537	525	
6	0	0	0	0	536	525	
7	0	0	0	0	536	525	
8	0	0	0	0	535	525	
9	0	0	0	0	534	525	
10	0	0	0	0	532	525	
11	0	0	0	0	532	526	
12	0	0	0	0	531	526	
13	0	0	0	0	530	526	
14	0	0	0	0	529	526	
15	0	0	0	0	528	526	
0	0	0	0	0	527	526	
1	0	0	0	0	526	526	
2	0	0	0	0	524	526	
3	0	0	0	0	523	526	
4	0	0	0	0	522	526	
5	0	0	0	0	523	526	
6	0	0	0	0	522	526	
7	0	0	0	0	521	526	
8	0	0	0	0	522	527	
9	0	0	0	0	521	526	
10	0	0	0	0	523	527	
11	0	0	0	0	524	527	
12	0	0	0	0	527	527	
13	0	0	0	0	530	527	
14	0	0	0	0	532	527	
15	0	0	0	0	535	527	
0	0	0	0	0	536	527	
1	0	0	0	0	538	527	
2	0	0	0	0	539	527	
3	0	0	0	0	540	527	
4	0	0	0	0	538	527	
5	0	0	0	0	532	527	
6	0	0	0	0	526	527	
7	0	0	0	0	517	527	
8	0	0	0	0	512	527	
9	0	0	0	0	509	527	
10	0	0	0	0	509	528	
11	0	0	0	0	511	528	
12	0	0	0	0	513	527	
13	0	0	0	0	513	527	
14	0	0	0	0	512	528	
15	0	0	0	0	508	528	
0	0	0	0	0	502	528	
1	0	0	0	0	494	528	
2	0	0	0	0	487	528	
3	0	0	0	0	483	528	
4	0	0	0	0	481	528	
5	0	0	0	0	483	529	
6	0	0	0	0	485	528	
7	0	0	0	0	486	529	
8	0	0	0	0	486	528	
9	0	0	0	0	485	529	
10	0	0	0	0	486	529	
11	0	0	0	0	486	528	
12	0	0	0	0	487	529	
13	0	0	0	0	488	529	
14	0	0	0	0	493	529	
15	0	0	0	0	499	528	
0	0	0	0	0	508	529	
1	0	0	0	0	516	528	
2	0	0	0	0	526	529	
3	0	0	0	0	535	529	
4	0	0	0	0	541	529	
5	0	0	0	0	543	529	
6	0	0	0	0	539	529	
7	0	0	0	0	536	529	
8	0	0	0	0	534	529	
9	0	0	0	0	534	529	
10	0	0	0	0	531	529	
11	0	0	0	0	530	529	
12	0	0	0	0	528	529	
13	0	0	0	0	527	529	
14	0	0	0	0	526	529	
15	0	0	0	0	524	529	
0	0	0	0	0	523	529	
1	0	0	0	0	520	529	
2	0	0	0	0	519	529	
3	0	0	0	0	518	529	
4	0	0	0	0	517	529	
5	0	0	0	0	517	530	
6	0	0	0	0	517	529	
7	0	0	0	0	517	529	
8	0	0	0	0	516	530	
9	0	0	0	0	516	530	
10	0	0	0	0	514	530	
11	0	0	0	0	512	530	
12	0	0	0	0	512	530	
13	0	0	0	0	511	530	
14	0	0	0	0	511	530	
15	0	0	0	0	512	530	
0	0	0	0	0	515	530	
1	0	0	0	0	517	529	
2	0	0	0	0	519	529	
3	0	0	0	0	519	529	
4	0	0	0	0	522	529	
5	0	0	0	0	524	529	
6	0	0	0	0	524	529	
7	0	0	0	0	524	529	
8	0	0	0	0	525	529	
9	0	0	0	0	524	530	
10	0	0	0	0	525	530	
11	0	0	0	0	524	530	
12	0	0	0	0	522	530	
13	0	0	0	0	520	529	
14	0	0	0	0	518	529	
15	0	0	0	0	516	530	
0	0	0	0	0	513	530	
1	0	0	0	0	508	529	
2	0	0	0	0	501	530	
3	0	0	0	0	494	529	
4	0	0	0	0	488	530	
5	0	0	0	0	483	529	
6	0	0	0	0	482	529	
7	0	0	0	0	484	529	
8	0	0	0	0	488	529	
9	0	0	0	0	495	530	
10	0	0	0	0	503	530	
11	0	0	0	0	508	530	
12	0	0	0	0	515	530	
13	0	0	0	0	520	530	
14	0	0	0	0	524	529	
15	0	0	0	0	527	530	
0	0	0	0	0	529	530	
1	0	0	0	0	530	529	
2	0	0	0	0	530	529	
3	0	0	0	0	529	530	
4	0	0	0	0	528	529	
5	0	0	0	0	527	530	
6	0	0	0	0	525	530	
7	0	0	0	0	523	529	
8	0	0	0	0	521	530	
9	0	0	0	0	519	530	
10	0	0	0	0	517	530	
11	0	0	0	0	515	530	
12	0	0	0	0	515	530	
13	0	0	0	0	515	530	
14	0	0	0	0	514	530	
15	0	0	0	0	515	530	
0	0	0	0	0	515	530	
1	0	0	0	0	515	530	
2	0	0	0	0	515	530	
3	0	0	0	0	516	530	
4	0	0	0	0	513	530	
5	0	0	0	0	511	530	
6	0	0	0	0	507	531	
7	0	0	0	0	501	530	
8	0	0	0	0	496	531	
9	0	0	0	0	492	530	
10	0	0	0	0	489	530	
11	0	0	0	0	490	530	
12	0	0	0	0	494	531	
13	0	0	0	0	499	530	
14	0	0	0	0	504	531	
15	0	0	0	0	508	530	
0	0	0	0	0	510	531	
1	0	0	0	0	510	531	
2	0	0	0	0	510	530	
3	0	0	0	0	510	530	
4	0	0	0	0	511	530	
5	0	0	0	0	511	531	
6	0	0	0	0	512	531	
7	0	0	0	0	513	530	
8	0	0	0	0	516	531	
9	0	0	0	0	518	531	
10	0	0	0	0	520	531	
11	0	0	0	0	524	530	
12	0	0	0	0	527	531	
13	0	0	0	0	528	530	
14	0	0	0	0	527	530	
15	0	0	0	0	526	530	
0	0	0	0	0	525	531	
1	0	0	0	0	524	530	
2	0	0	0	0	521	531	
3	0	0	0	0	518	531	
4	0	0	0	0	516	530	
5	0	0	0	0	516	530	
6	0	0	0	0	518	530	
7	0	0	0	0	520	530	
8	0	0	0	0	523	531	
9	0	0	0	0	524	531	
10	0	0	0	0	525	531	
11	0	0	0	0	525	530	
12	0	0	0	0	524	530	
13	0	0	0	0	522	531	
14	0	0	0	0	519	530	
15	0	0	0	0	515	530	
0	0	0	0	0	511	530	
1	0	0	0	0	507	530	
2	0	0	0	0	504	531	
3	0	0	0	0	500	530	
4	0	0	0	0	499	530	
5	0	0	0	0	498	530	
6	0	0	0	0	499	530	
7	0	0	0	0	502	530	
8	0	0	0	0	504	530	
9	0	0	0	0	507	530	
10	0	0	0	0	508	530	
11	0	0	0	0	508	530	
12	0	0	0	0	510	530	
13	0	0	0	0	512	530	
14	0	0	0	0	513	530	
15	0	0	0	0	516	530	
0	0	0	0	0	518	529	
1	0	0	0	0	517	530	
2	0	0	0	0	516	529	
3	0	0	0	0	516	530	
4	0	0	0	0	516	529	
5	0	0	0	0	515	529	
6	0	0	0	0	514	529	
7	0	0	0	0	513	529	
8	0	0	0	0	513	529	
9	0	0	0	0	514	529	
10	0	0	0	0	514	529	
11	0	0	0	0	513	529	
12	0	0	0	0	513	529	
13	0	0	0	0	512	529	
14	0	0	0	0	511	529	
15	0	0	0	0	511	529	
0	0	0	0	0	510	529	
1	0	0	0	0	508	529	
2	0	0	0	0	505	529	
3	0	0	0	0	501	529	
4	0	0	0	0	495	529	
5	0	0	0	0	487	528	
6	0	0	0	0	481	529	
7	0	0	0	0	477	528	
8	0	0	0	0	475	528	
9	0	0	0	0	476	528	
10	0	0	0	0	478	528	
11	0	0	0	0	483	528	
12	0	0	0	0	490	528	
13	0	0	0	0	498	528	
14	0	0	0	0	503	528	
15	0	0	0	0	508	528	
0	0	0	0	0	512	528	
1	0	0	0	0	515	528	
2	0	0	0	0	516	528	
3	0	0	0	0	516	528	
4	0	0	0	0	514	527	
5	0	0	0	0	512	527	
6	0	0	0	0	510	528	
7	0	0	0	0	510	528	
8	0	0	0	0	511	527	
9	0	0	0	0	513	527	
10	0	0	0	0	515	527	
11	0	0	0	0	516	527	
12	0	0	0	0	516	527	
13	0	0	0	0	515	527	
14	0	0	0	0	513	527	
15	0	0	0	0	510	527	
0	0	0	0	0	508	527	
1	0	0	0	0	505	527	
2	0	0	0	0	504	527	
3	0	0	0	0	506	527	
4	0	0	0	0	508	527	
5	0	0	0	0	509	527	
6	0	0	0	0	510	527	
7	0	0	0	0	510	527	
8	0	0	0	0	508	527	
9	0	0	0	0	504	526	
10	0	0	0	0	500	527	
11	0	0	0	0	495	527	
12	0	0	0	0	488	527	
13	0	0	0	0	483	527	
14	0	0	0	0	478	527	
15	0	0	0	0	475	526	
0	0	0	0	0	475	527	
1	0	0	0	0	477	526	
2	0	0	0	0	481	526	
3	0	0	0	0	487	526	
4	0	0	0	0	494	526	
5	0	0	0	0	497	526	
6	0	0	0	0	501	526	
7	0	0	0	0	503	526	
8	0	0	0	0	506	526	
9	0	0	0	0	508	526	
10	0	0	0	0	509	526	
11	0	0	0	0	510	526	
12	0	0	0	0	510	525	
13	0	0	0	0	511	526	
14	0	0	0	0	511	526	
15	0	0	0	0	512	526	
0	0	0	0	0	513	526	
1	0	0	0	0	513	526	
2	0	0	0	0	513	526	
3	0	0	0	0	512	525	
4	0	0	0	0	512	525	
5	0	0	0	0	510	526	
6	0	0	0	0	508	525	
7	0	0	0	0	506	525	
8	0	0	0	0	505	526	
9	0	0	0	0	505	525	
10	0	0	0	0	505	525	
11	0	0	0	0	505	525	
12	0	0	0	0	506	525	
13	0	0	0	0	508	525	
14	0	0	0	0	508	524	
15	0	0	0	0	509	524	
0	0	0	0	0	510	525	
1	0	0	0	0	512	525	
2	0	0	0	0	512	525	
3	0	0	0	0	512	524	
4	0	0	0	0	512	525	
5	0	0	0	0	512	524	
6	0	0	0	0	510	524	
7	0	0	0	0	510	524	
8	0	0	0	0	511	524	
9	0	0	0	0	510	524	
10	0	0	0	0	506	524	
11	0	0	0	0	500	524	
12	0	0	0	0	494	524	
13	0	0	0	0	486	524	
14	0	0	0	0	481	524	
15	0	0	0	0	478	524	
0	0	0	0	0	478	524	
1	0	0	0	0	479	524	
2	0	0	0	0	483	524	
3	0	0	0	0	489	524	
4	0	0	0	0	494	524	
5	0	0	0	0	498	524	
6	0	0	0	0	501	524	
7	0	0	0	0	504	524	
8	0	0	0	0	508	523	
9	0	0	0	0	512	524	
10	0	0	0	0	517	524	
11	0	0	0	0	520	523	
12	0	0	0	0	523	524	
13	0	0	0	0	525	524	
14	0	0	0	0	527	523	
15	0	0	0	0	529	523	
0	0	0	0	0	528	523	
1	0	0	0	0	525	523	
2	0	0	0	0	519	523	
3	0	0	0	0	512	523	
4	0	0	0	0	505	523	
5	0	0	0	0	499	523	
6	0	0	0	0	495	523	
7	0	0	0	0	493	523	
8	0	0	0	0	493	523	
9	0	0	0	0	496	523	
10	0	0	0	0	502	523	
11	0	0	0	0	509	522	
12	0	0	0	0	517	523	
13	0	0	0	0	525	523	
14	0	0	0	0	530	522	
15	0	0	0	0	534	522	
0	0	0	0	0	536	522	
1	0	0	0	0	537	522	
2	0	0	0	0	538	522	
3	0	0	0	0	539	522	
4	0	0	0	0	539	522	
5	0	0	0	0	539	522	
6	0	0	0	0	537	522	
7	0	0	0	0	533	522	
8	0	0	0	0	526	522	
9	0	0	0	0	517	522	
10	0	0	0	0	508	521	
11	0	0	0	0	503	522	
12	0	0	0	0	499	521	
13	0	0	0	0	500	521	
14	0	0	0	0	504	521	
15	0	0	0	0	507	521	
0	0	0	0	0	511	521	
1	0	0	0	0	516	521	
2	0	0	0	0	519	521	
3	0	0	0	0	522	521	
4	0	0	0	0	524	521	
5	0	0	0	0	525	520	
6	0	0	0	0	524	521	
7	0	0	0	0	524	520	
8	0	0	0	0	523	521	
9	0	0	0	0	522	521	
10	0	0	0	0	521	520	
11	0	0	0	0	522	520	
12	0	0	0	0	523	521	
13	0	0	0	0	524	520	
14	0	0	0	0	524	521	
15	0	0	0	0	526	520	
0	0	0	0	0	525	520	
1	0	0	0	0	524	520	
2	0	0	0	0	521	520	
3	0	0	0	0	518	520	
4	0	0	0	0	513	520	
5	0	0	0	0	511	520	
6	0	0	0	0	509	520	
7	0	0	0	0	508	520	
8	0	0	0	0	509	520	
9	0	0	0	0	510	520	
10	0	0	0	0	509	519	
11	0	0	0	0	508	519	
12	0	0	0	0	505	520	
13	0	0	0	0	500	520	
14	0	0	0	0	494	519	
15	0	0	0	0	487	519	
0	0	0	0	0	481	520	
1	0	0	0	0	474	520	
2	0	0	0	0	466	520	
3	0	0	0	0	457	519	
4	0	0	0	0	446	519	
5	0	0	0	0	434	519	
6	0	0	0	0	423	519	
7	0	0	0	0	414	519	
8	0	0	0	0	406	519	
9	0	0	0	0	399	519	
10	0	0	0	0	391	519	
11	0	0	0	0	387	519	
12	0	0	0	0	387	519	
13	0	0	0	0	390	519	
14	0	0	0	0	391	519	
15	0	0	0	0	393	519	
0	0	0	0	0	397	519	
1	0	0	0	0	403	519	
2	0	0	0	0	408	519	
3	0	0	0	0	414	519	
4	0	0	0	0	419	519	
5	0	0	0	0	427	519	
6	0	0	0	0	437	519	
7	0	0	0	0	449	519	
8	0	0	0	0	466	519	
9	0	0	0	0	483	519	
10	0	0	0	0	502	518	
11	0	0	0	0	522	519	
12	0	0	0	0	540	519	
13	0	0	0	0	556	519	
14	0	0	0	0	572	518	
15	0	0	0	0	584	519	
0	0	0	0	0	595	518	
1	0	0	0	0	603	518	
2	0	0	0	0	608	518	
3	0	0	0	0	611	518	
4	0	0	0	0	615	518	
5	0	0	0	0	620	519	
6	0	0	0	0	623	518	
7	0	0	0	0	623	518	
8	0	0	0	0	621	518	
9	0	0	0	0	616	518	
10	0	0	0	0	610	518	
11	0	0	0	0	603	518	
12	0	0	0	0	597	518	
13	0	0	0	0	590	518	
14	0	0	0	0	584	518	
15	0	0	0	0	580	518	
0	0	0	0	0	577	518	
1	0	0	0	0	575	518	
2	0	0	0	0	574	518	
3	0	0	0	0	572	518	
4	0	0	0	0	571	518	
5	0	0	0	0	570	517	
6	0	0	0	0	568	518	
7	0	0	0	0	565	517	
8	0	0	0	0	561	517	
9	0	0	0	0	556	517	
10	0	0	0	0	548	517	
11	0	0	0	0	541	517	
12	0	0	0	0	536	517	
13	0	0	0	0	530	517	
14	0	0	0	0	526	516	
15	0	0	0	0	523	516	
0	0	0	0	0	522	517	
1	0	0	0	0	521	516	
2	0	0	0	0	518	516	
3	0	0	0	0	513	517	
4	0	0	0	0	509	517	
5	0	0	0	0	506	517	
6	0	0	0	0	504	517	
7	0	0	0	0	504	516	
8	0	0	0	0	503	516	
9	0	0	0	0	503	516	
10	0	0	0	0	501	516	
11	0	0	0	0	499	516	
12	0	0	0	0	499	516	
13	0	0	0	0	497	516	
14	0	0	0	0	496	516	
15	0	0	0	0	492	516	
0	0	0	0	0	487	515	
1	0	0	0	0	485	516	
2	0	0	0	0	483	516	
3	0	0	0	0	482	516	
4	0	0	0	0	485	515	
5	0	0	0	0	490	516	
6	0	0	0	0	494	515	
7	0	0	0	0	498	516	
8	0	0	0	0	503	515	
9	0	0	0	0	508	516	
10	0	0	0	0	512	515	
11	0	0	0	0	514	515	
12	0	0	0	0	518	516	
13	0	0	0	0	520	515	
14	0	0	0	0	520	515	
15	0	0	0	0	520	515	
0	0	0	0	0	519	515	
1	0	0	0	0	517	515	
2	0	0	0	0	515	515	
3	0	0	0	0	513	515	
4	0	0	0	0	513	515	
5	0	0	0	0	514	515	
6	0	0	0	0	516	515	
7	0	0	0	0	518	515	
8	0	0	0	0	518	515	
9	0	0	0	0	518	515	
10	0	0	0	0	519	515	
11	0	0	0	0	520	515	
12	0	0	0	0	522	515	
13	0	0	0	0	523	515	
14	0	0	0	0	523	515	
15	0	0	0	0	525	515	
0	0	0	0	0	524	515	
1	0	0	0	0	523	515	
2	0	0	0	0	520	515	
3	0	0	0	0	515	515	
4	0	0	0	0	509	515	
5	0	0	0	0	503	515	
6	0	0	0	0	496	515	
7	0	0	0	0	489	515	
8	0	0	0	0	483	515	
9	0	0	0	0	478	515	
10	0	0	0	0	475	515	
11	0	0	0	0	473	515	
12	0	0	0	0	475	515	
13	0	0	0	0	480	515	
14	0	0	0	0	486	515	
15	0	0	0	0	494	515	
0	0	0	0	0	504	515	
1	0	0	0	0	514	515	
2	0	0	0	0	523	515	
3	0	0	0	0	527	514	
4	0	0	0	0	527	515	
5	0	0	0	0	524	515	
6	0	0	0	0	519	514	
7	0	0	0	0	512	515	
8	0	0	0	0	507	515	
9	0	0	0	0	503	514	
10	0	0	0	0	502	515	
11	0	0	0	0	503	514	
12	0	0	0	0	504	514	
13	0	0	0	0	504	514	
14	0	0	0	0	503	515	
15	0	0	0	0	500	515	
0	0	0	0	0	497	515	
1	0	0	0	0	495	514	
2	0	0	0	0	493	515	
3	0	0	0	0	492	514	
4	0	0	0	0	490	514	
5	0	0	0	0	491	514	
6	0	0	0	0	492	514	
7	0	0	0	0	494	514	
8	0	0	0	0	494	514	
9	0	0	0	0	496	514	
10	0	0	0	0	498	514	
11	0	0	0	0	498	514	
12	0	0	0	0	497	514	
13	0	0	0	0	495	514	
14	0	0	0	0	495	514	
15	0	0	0	0	494	514	
0	0	0	0	0	496	514	
1	0	0	0	0	499	514	
2	0	0	0	0	503	514	
3	0	0	0	0	505	514	
4	0	0	0	0	504	514	
5	0	0	0	0	502	514	
6	0	0	0	0	500	514	
7	0	0	0	0	499	514	
8	0	0	0	0	499	514	
9	0	0	0	0	502	514	
10	0	0	0	0	502	513	
11	0	0	0	0	503	513	
12	0	0	0	0	503	514	
13	0	0	0	0	503	513	
14	0	0	0	0	502	514	
15	0	0	0	0	502	514	
0	0	0	0	0	500	514	
1	0	0	0	0	497	514	
2	0	0	0	0	496	513	
3	0	0	0	0	495	513	
4	0	0	0	0	494	513	
5	0	0	0	0	494	513	
6	0	0	0	0	494	513	
7	0	0	0	0	493	513	
8	0	0	0	0	491	513	
9	0	0	0	0	489	513	
10	0	0	0	0	489	513	
11	0	0	0	0	489	513	
12	0	0	0	0	491	513	
13	0	0	0	0	493	513	
14	0	0	0	0	495	513	
15	0	0	0	0	496	513	
0	0	0	0	0	497	513	
1	0	0	0	0	497	513	
2	0	0	0	0	496	513	
3	0	0	0	0	495	513	
4	0	0	0	0	495	513	
5	0	0	0	0	496	513	
6	0	0	0	0	496	513	
7	0	0	0	0	496	513	
8	0	0	0	0	498	513	
9	0	0	0	0	496	513	
10	0	0	0	0	494	512	
11	0	0	0	0	491	512	
12	0	0	0	0	487	513	
13	0	0	0	0	484	513	
14	0	0	0	0	481	512	
15	0	0	0	0	481	512	
0	0	0	0	0	484	513	
1	0	0	0	0	488	512	
2	0	0	0	0	493	513	
3	0	0	0	0	498	512	
4	0	0	0	0	502	512	
5	0	0	0	0	502	512	
6	0	0	0	0	501	512	
7	0	0	0	0	499	512	
8	0	0	0	0	496	512	
9	0	0	0	0	494	512	
10	0	0	0	0	492	512	
11	0	0	0	0	491	512	
12	0	0	0	0	490	512	
13	0	0	0	0	490	512	
14	0	0	0	0	490	512	
15	0	0	0	0	490	512	
0	0	0	0	0	492	512	
1	0	0	0	0	492	512	
2	0	0	0	0	491	512	
3	0	0	0	0	487	512	
4	0	0	0	0	484	512	
5	0	0	0	0	478	512	
6	0	0	0	0	474	511	
7	0	0	0	0	472	512	
8	0	0	0	0	472	512	
9	0	0	0	0	474	512	
10	0	0	0	0	478	512	
11	0	0	0	0	482	512	
12	0	0	0	0	487	512	
13	0	0	0	0	494	511	
14	0	0	0	0	497	512	
15	0	0	0	0	497	511	
0	0	0	0	0	498	511	
1	0	0	0	0	499	511	
2	0	0	0	0	500	511	
3	0	0	0	0	500	512	
4	0	0	0	0	500	512	
5	0	0	0	0	500	512	
6	0	0	0	0	500	511	
7	0	0	0	0	501	511	
8	0	0	0	0	502	511	
9	0	0	0	0	503	511	
10	0	0	0	0	504	511	
11	0	0	0	0	504	512	
12	0	0	0	0	504	511	
13	0	0	0	0	503	511	
14	0	0	0	0	501	511	
15	0	0	0	0	499	511	
0	0	0	0	0	497	511	
1	0	0	0	0	496	511	
2	0	0	0	0	495	511	
3	0	0	0	0	494	511	
4	0	0	0	0	496	511	
5	0	0	0	0	497	511	
6	0	0	0	0	500	511	
7	0	0	0	0	503	511	
8	0	0	0	0	506	511	
9	0	0	0	0	509	511	
10	0	0	0	0	513	511	
11	0	0	0	0	518	511	
12	0	0	0	0	522	511	
13	0	0	0	0	525	511	
14	0	0	0	0	528	511	
15	0	0	0	0	529	511	
0	0	0	0	0	528	511	
1	0	0	0	0	525	511	
2	0	0	0	0	520	511	
3	0	0	0	0	515	511	
4	0	0	0	0	513	511	
5	0	0	0	0	514	511	
6	0	0	0	0	517	511	
7	0	0	0	0	519	511	
8	0	0	0	0	521	511	
9	0	0	0	0	523	511	
10	0	0	0	0	523	511	
11	0	0	0	0	524	511	
12	0	0	0	0	524	511	
13	0	0	0	0	520	510	
14	0	0	0	0	517	511	
15	0	0	0	0	515	511	
0	0	0	0	0	514	511	
1	0	0	0	0	512	510	
2	0	0	0	0	512	511	
3	0	0	0	0	513	510	
4	0	0	0	0	515	511	
5	0	0	0	0	516	511	
6	0	0	0	0	517	511	
7	0	0	0	0	517	510	
8	0	0	0	0	516	511	
9	0	0	0	0	514	511	
10	0	0	0	0	512	511	
11	0	0	0	0	512	511	
12	0	0	0	0	514	511	
13	0	0	0	0	519	511	
14	0	0	0	0	526	511	
15	0	0	0	0	534	511	
0	0	0	0	0	541	511	
1	0	0	0	0	549	511	
2	0	0	0	0	551	510	
3	0	0	0	0	549	511	
4	0	0	0	0	547	511	
5	0	0	0	0	545	511	
6	0	0	0	0	541	511	
7	0	0	0	0	534	511	
8	0	0	0	0	527	511	
9	0	0	0	0	519	511	
10	0	0	0	0	511	511	
11	0	0	0	0	504	510	
12	0	0	0	0	502	511	
13	0	0	0	0	504	511	
14	0	0	0	0	511	511	
15	0	0	0	0	522	511	
0	0	0	0	0	533	511	
1	0	0	0	0	542	511	
2	0	0	0	0	551	511	
3	0	0	0	0	557	511	
4	0	0	0	0	558	511	
5	0	0	0	0	556	511	
6	0	0	0	0	553	511	
7	0	0	0	0	553	511	
8	0	0	0	0	555	511	
9	0	0	0	0	557	511	
10	0	0	0	0	561	511	
11	0	0	0	0	565	511	
12	0	0	0	0	571	511	
13	0	0	0	0	576	512	
14	0	0	0	0	579	511	
15	0	0	0	0	583	512	
0	0	0	0	0	584	512	
1	0	0	0	0	584	512	
2	0	0	0	0	582	512	
3	0	0	0	0	580	512	
4	0	0	0	0	578	512	
5	0	0	0	0	578	512	
6	0	0	0	0	577	512	
7	0	0	0	0	575	512	
8	0	0	0	0	574	512	
9	0	0	0	0	571	512	
10	0	0	0	0	568	512	
11	0	0	0	0	564	513	
12	0	0	0	0	561	513	
13	0	0	0	0	557	513	
14	0	0	0	0	554	513	
15	0	0	0	0	551	513	
0	0	0	0	0	548	513	
1	0	0	0	0	544	513	
2	0	0	0	0	539	513	
3	0	0	0	0	534	513	
4	0	0	0	0	531	513	
5	0	0	0	0	527	513	
6	0	0	0	0	526	513	
7	0	0	0	0	525	514	
8	0	0	0	0	525	513	
9	0	0	0	0	526	514	
10	0	0	0	0	525	514	
11	0	0	0	0	525	515	
12	0	0	0	0	526	514	
13	0	0	0	0	526	515	
14	0	0	0	0	527	515	
15	0	0	0	0	527	515	
0	0	0	0	0	526	515	
1	0	0	0	0	525	515	
2	0	0	0	0	524	515	
3	0	0	0	0	522	515	
4	0	0	0	0	522	515	
5	0	0	0	0	522	515	
6	0	0	0	0	519	515	
7	0	0	0	0	517	515	
8	0	0	0	0	516	516	
9	0	0	0	0	515	516	
10	0	0	0	0	514	516	
11	0	0	0	0	514	516	
12	0	0	0	0	514	516	
13	0	0	0	0	515	516	
14	0	0	0	0	514	516	
15	0	0	0	0	514	517	
0	0	0	0	0	516	517	
1	0	0	0	0	516	517	
2	0	0	0	0	517	517	
3	0	0	0	0	516	517	
4	0	0	0	0	516	517	
5	0	0	0	0	515	518	
6	0	0	0	0	515	517	
7	0	0	0	0	515	518	
8	0	0	0	0	514	518	
9	0	0	0	0	513	518	
10	0	0	0	0	512	518	
11	0	0	0	0	511	518	
12	0	0	0	0	512	518	
13	0	0	0	0	512	518	
14	0	0	0	0	512	518	
15	0	0	0	0	512	518	
0	0	0	0	0	513	518	
1	0	0	0	0	514	519	
2	0	0	0	0	513	518	
3	0	0	0	0	514	518	
4	0	0	0	0	515	519	
5	0	0	0	0	516	519	
6	0	0	0	0	517	519	
7	0	0	0	0	517	519	
8	0	0	0	0	517	519	
9	0	0	0	0	518	519	
10	0	0	0	0	517	519	
11	0	0	0	0	515	519	
12	0	0	0	0	515	519	
13	0	0	0	0	515	519	
14	0	0	0	0	515	519	
15	0	0	0	0	513	519	
0	0	0	0	0	514	519	
1	0	0	0	0	513	519	
2	0	0	0	0	514	520	
3	0	0	0	0	514	520	
4	0	0	0	0	512	520	
5	0	0	0	0	511	520	
6	0	0	0	0	513	520	
7	0	0	0	0	514	520	
8	0	0	0	0	514	520	
9	0	0	0	0	515	520	
10	0	0	0	0	516	520	
11	0	0	0	0	515	520	
12	0	0	0	0	514	521	
13	0	0	0	0	513	520	
14	0	0	0	0	512	520	
15	0	0	0	0	510	521	
0	0	0	0	0	506	521	
1	0	0	0	0	503	521	
2	0	0	0	0	500	521	
3	0	0	0	0	496	521	
4	0	0	0	0	489	521	
5	0	0	0	0	481	521	
6	0	0	0	0	475	521	
7	0	0	0	0	471	522	
8	0	0	0	0	472	522	
9	0	0	0	0	479	521	
10	0	0	0	0	487	521	
11	0	0	0	0	493	522	
12	0	0	0	0	501	522	
13	0	0	0	0	510	522	
14	0	0	0	0	519	523	
15	0	0	0	0	524	523	
0	0	0	0	0	527	523	
1	0	0	0	0	527	523	
2	0	0	0	0	529	523	
3	0	0	0	0	530	523	
4	0	0	0	0	530	523	
5	0	0	0	0	527	523	
6	0	0	0	0	519	523	
7	0	0	0	0	514	524	
8	0	0	0	0	511	524	
9	0	0	0	0	511	524	
10	0	0	0	0	514	524	
11	0	0	0	0	518	524	
12	0	0	0	0	520	524	
13	0	0	0	0	523	524	
14	0	0	0	0	527	524	
15	0	0	0	0	531	524	
0	0	0	0	0	532	525	
1	0	0	0	0	531	524	
2	0	0	0	0	530	525	
3	0	0	0	0	528	525	
4	0	0	0	0	528	525	
5	0	0	0	0	531	525	
6	0	0	0	0	535	525	
7	0	0	0	0	537	526	
8	0	0	0	0	541	525	
9	0	0	0	0	545	526	
10	0	0	0	0	547	526	
11	0	0	0	0	547	526	
12	0	0	0	0	545	526	
13	0	0	0	0	543	527	
14	0	0	0	0	541	527	
15	0	0	0	0	540	527	
0	0	0	0	0	539	527	
1	0	0	0	0	538	527	
2	0	0	0	0	536	527	
3	0	0	0	0	534	527	
4	0	0	0	0	532	527	
5	0	0	0	0	530	528	
6	0	0	0	0	528	528	
7	0	0	0	0	526	528	
8	0	0	0	0	523	528	
9	0	0	0	0	521	528	
10	0	0	0	0	519	529	
11	0	0	0	0	518	529	
12	0	0	0	0	515	529	
13	0	0	0	0	514	529	
14	0	0	0	0	512	529	
15	0	0	0	0	510	529	
0	0	0	0	0	508	529	
1	0	0	0	0	508	529	
2	0	0	0	0	508	530	
3	0	0	0	0	508	530	
4	0	0	0	0	508	529	
5	0	0	0	0	508	530	
6	0	0	0	0	507	530	
7	0	0	0	0	505	530	
8	0	0	0	0	505	531	
9	0	0	0	0	505	530	
10	0	0	0	0	506	531	
11	0	0	0	0	505	531	
12	0	0	0	0	505	531	
13	0	0	0	0	505	531	
14	0	0	0	0	505	531	
15	0	0	0	0	505	531	
0	0	0	0	0	507	531	
1	0	0	0	0	507	531	
2	0	0	0	0	508	531	
3	0	0	0	0	508	531	
4	0	0	0	0	507	532	
5	0	0	0	0	507	532	
6	0	0	0	0	507	532	
7	0	0	0	0	507	532	
8	0	0	0	0	508	532	
9	0	0	0	0	510	532	
10	0	0	0	0	512	532	
11	0	0	0	0	511	532	
12	0	0	0	0	510	532	
13	0	0	0	0	509	533	
14	0	0	0	0	508	533	
15	0	0	0	0	506	533	
0	0	0	0	0	504	532	
1	0	0	0	0	504	533	
2	0	0	0	0	505	534	
3	0	0	0	0	506	533	
4	0	0	0	0	507	534	
5	0	0	0	0	507	533	
6	0	0	0	0	506	534	
7	0	0	0	0	505	533	
8	0	0	0	0	505	534	
9	0	0	0	0	506	534	
10	0	0	0	0	507	534	
11	0	0	0	0	507	534	
12	0	0	0	0	506	534	
13	0	0	0	0	506	534	
14	0	0	0	0	508	534	
15	0	0	0	0	510	534	
0	0	0	0	0	509	534	
1	0	0	0	0	508	534	
2	0	0	0	0	507	535	
3	0	0	0	0	508	534	
4	0	0	0	0	507	534	
5	0	0	0	0	507	535	
6	0	0	0	0	506	535	
7	0	0	0	0	505	535	
8	0	0	0	0	505	535	
9	0	0	0	0	506	535	
10	0	0	0	0	505	535	
11	0	0	0	0	505	535	
12	0	0	0	0	504	535	
13	0	0	0	0	502	535	
14	0	0	0	0	501	535	
15	0	0	0	0	501	535	
0	0	0	0	0	500	535	
1	0	0	0	0	499	535	
2	0	0	0	0	499	535	
3	0	0	0	0	499	535	
4	0	0	0	0	499	536	
5	0	0	0	0	498	535	
6	0	0	0	0	496	535	
7	0	0	0	0	496	536	
8	0	0	0	0	496	536	
9	0	0	0	0	496	536	
10	0	0	0	0	496	536	
11	0	0	0	0	493	536	
12	0	0	0	0	491	536	
13	0	0	0	0	486	536	
14	0	0	0	0	480	536	
15	0	0	0	0	476	536	
0	0	0	0	0	473	536	
1	0	0	0	0	472	536	
2	0	0	0	0	472	536	
3	0	0	0	0	473	536	
4	0	0	0	0	476	536	
5	0	0	0	0	478	536	
6	0	0	0	0	480	536	
7	0	0	0	0	482	536	
8	0	0	0	0	484	536	
9	0	0	0	0	486	536	
10	0	0	0	0	487	537	
11	0	0	0	0	488	537	
12	0	0	0	0	491	537	
13	0	0	0	0	495	536	
14	0	0	0	0	499	537	
15	0	0	0	0	502	536	
0	0	0	0	0	503	537	
1	0	0	0	0	506	537	
2	0	0	0	0	507	537	
3	0	0	0	0	504	537	
4	0	0	0	0	503	537	
5	0	0	0	0	500	537	
6	0	0	0	0	499	537	
7	0	0	0	0	499	537	
8	0	0	0	0	502	537	
9	0	0	0	0	508	537	
10	0	0	0	0	514	537	
11	0	0	0	0	519	537	
12	0	0	0	0	525	538	
13	0	0	0	0	530	538	
14	0	0	0	0	536	537	
15	0	0	0	0	539	537	
0	0	0	0	0	541	538	
1	0	0	0	0	542	537	
2	0	0	0	0	542	538	
3	0	0	0	0	540	538	
4	0	0	0	0	539	538	
5	0	0	0	0	539	538	
6	0	0	0	0	536	538	
7	0	0	0	0	534	538	
8	0	0	0	0	532	539	
9	0	0	0	0	531	539	
10	0	0	0	0	528	539	
11	0	0	0	0	527	539	
12	0	0	0	0	527	539	
13	0	0	0	0	526	539	
14	0	0	0	0	526	539	
15	0	0	0	0	525	539	
0	0	0	0	0	525	540	
1	0	0	0	0	524	539	
2	0	0	0	0	523	540	
3	0	0	0	0	519	540	
4	0	0	0	0	519	540	
5	0	0	0	0	519	540	
6	0	0	0	0	518	540	
7	0	0	0	0	516	540	
8	0	0	0	0	515	540	
9	0	0	0	0	514	540	
10	0	0	0	0	512	540	
11	0	0	0	0	512	540	
12	0	0	0	0	512	541	
13	0	0	0	0	512	540	
14	0	0	0	0	513	541	
15	0	0	0	0	512	541	
0	0	0	0	0	512	541	
1	0	0	0	0	512	541	
2	0	0	0	0	513	541	
3	0	0	0	0	512	542	
4	0	0	0	0	512	541	
5	0	0	0	0	513	541	
6	0	0	0	0	513	542	
7	0	0	0	0	514	542	
8	0	0	0	0	514	542	
9	0	0	0	0	515	542	
10	0	0	0	0	513	542	
11	0	0	0	0	513	542	
12	0	0	0	0	511	542	
13	0	0	0	0	509	542	
14	0	0	0	0	507	543	
15	0	0	0	0	504	543	
0	0	0	0	0	503	543	
1	0	0	0	0	501	543	
2	0	0	0	0	499	543	
3	0	0	0	0	496	543	
4	0	0	0	0	492	543	
5	0	0	0	0	488	543	
6	0	0	0	0	484	544	
7	0	0	0	0	480	544	
8	0	0	0	0	478	544	
9	0	0	0	0	475	544	
10	0	0	0	0	474	544	
11	0	0	0	0	473	544	
12	0	0	0	0	476	545	
13	0	0	0	0	481	544	
14	0	0	0	0	485	544	
15	0	0	0	0	487	545	
0	0	0	0	0	491	545	
1	0	0	0	0	494	545	
2	0	0	0	0	497	545	
3	0	0	0	0	503	545	
4	0	0	0	0	511	546	
5	0	0	0	0	518	545	
6	0	0	0	0	522	546	
7	0	0	0	0	522	546	
8	0	0	0	0	520	546	
9	0	0	0	0	518	547	
10	0	0	0	0	513	547	
11	0	0	0	0	510	547	
12	0	0	0	0	506	547	
13	0	0	0	0	504	547	
14	0	0	0	0	505	547	
15	0	0	0	0	509	548	
0	0	0	0	0	515	547	
1	0	0	0	0	519	548	
2	0	0	0	0	521	548	
3	0	0	0	0	523	548	
4	0	0	0	0	522	549	
5	0	0	0	0	518	548	
6	0	0	0	0	515	549	
7	0	0	0	0	510	549	
8	0	0	0	0	505	549	
9	0	0	0	0	499	550	
10	0	0	0	0	490	550	
11	0	0	0	0	483	550	
12	0	0	0	0	476	551	
13	0	0	0	0	466	551	
14	0	0	0	0	456	550	
15	0	0	0	0	448	551	
0	0	0	0	0	440	551	
1	0	0	0	0	433	551	
2	0	0	0	0	427	551	
3	0	0	0	0	423	551	
4	0	0	0	0	421	551	
5	0	0	0	0	421	551	
6	0	0	0	0	420	552	
7	0	0	0	0	422	552	
8	0	0	0	0	425	552	
9	0	0	0	0	429	552	
10	0	0	0	0	429	553	
11	0	0	0	0	428	553	
12	0	0	0	0	430	553	
13	0	0	0	0	434	553	
14	0	0	0	0	438	554	
15	0	0	0	0	445	554	
0	0	0	0	0	456	554	
1	0	0	0	0	470	554	
2	0	0	0	0	485	555	
3	0	0	0	0	501	555	
4	0	0	0	0	516	555	
5	0	0	0	0	530	555	
6	0	0	0	0	544	555	
7	0	0	0	0	556	555	
8	0	0	0	0	567	556	
9	0	0	0	0	575	556	
10	0	0	0	0	581	556	
11	0	0	0	0	586	556	
12	0	0	0	0	589	556	
13	0	0	0	0	592	557	
14	0	0	0	0	593	557	
15	0	0	0	0	593	557	
0	0	0	0	0	593	557	
1	0	0	0	0	591	557	
2	0	0	0	0	588	558	
3	0	0	0	0	585	558	
4	0	0	0	0	582	558	
5	0	0	0	0	577	559	
6	0	0	0	0	572	558	
7	0	0	0	0	568	558	
8	0	0	0	0	565	559	
9	0	0	0	0	561	558	
10	0	0	0	0	558	559	
11	0	0	0	0	555	559	
12	0	0	0	0	552	559	
13	0	0	0	0	549	560	
14	0	0	0	0	545	559	
15	0	0	0	0	540	560	
0	0	0	0	0	537	560	
1	0	0	0	0	535	560	
2	0	0	0	0	531	560	
3	0	0	0	0	528	560	
4	0	0	0	0	524	560	
5	0	0	0	0	521	560	
6	0	0	0	0	517	561	
7	0	0	0	0	513	561	
8	0	0	0	0	512	561	
9	0	0	0	0	509	561	
10	0	0	0	0	507	562	
11	0	0	0	0	506	561	
12	0	0	0	0	505	562	
13	0	0	0	0	504	561	
14	0	0	0	0	502	562	
15	0	0	0	0	499	562	
0	0	0	0	0	498	562	
1	0	0	0	0	498	562	
2	0	0	0	0	497	562	
3	0	0	0	0	498	563	
4	0	0	0	0	499	563	
5	0	0	0	0	499	563	
6	0	0	0	0	497	563	
7	0	0	0	0	497	563	
8	0	0	0	0	498	563	
9	0	0	0	0	499	563	
10	0	0	0	0	499	563	
11	0	0	0	0	499	564	
12	0	0	0	0	499	564	
13	0	0	0	0	499	563	
14	0	0	0	0	499	564	
15	0	0	0	0	499	564	
0	0	0	0	0	500	564	
1	0	0	0	0	501	564	
2	0	0	0	0	501	564	
3	0	0	0	0	501	565	
4	0	0	0	0	502	565	
5	0	0	0	0	502	564	
6	0	0	0	0	502	564	
7	0	0	0	0	502	565	
8	0	0	0	0	502	565	
9	0	0	0	0	502	565	
10	0	0	0	0	500	565	
11	0	0	0	0	500	565	
12	0	0	0	0	499	566	
13	0	0	0	0	497	566	
14	0	0	0	0	496	566	
15	0	0	0	0	496	566	
0	0	0	0	0	496	566	
1	0	0	0	0	494	566	
2	0	0	0	0	490	566	
3	0	0	0	0	486	566	
4	0	0	0	0	482	566	
5	0	0	0	0	481	567	
6	0	0	0	0	481	567	
7	0	0	0	0	484	567	
8	0	0	0	0	489	567	
9	0	0	0	0	497	567	
10	0	0	0	0	504	567	
11	0	0	0	0	510	567	
12	0	0	0	0	514	567	
13	0	0	0	0	517	568	
14	0	0	0	0	519	568	
15	0	0	0	0	521	567	
0	0	0	0	0	520	568	
1	0	0	0	0	519	568	
2	0	0	0	0	517	568	
3	0	0	0	0	518	568	
4	0	0	0	0	519	568	
5	0	0	0	0	518	568	
6	0	0	0	0	517	568	
7	0	0	0	0	516	568	
8	0	0	0	0	515	569	
9	0	0	0	0	514	568	
10	0	0	0	0	512	569	
11	0	0	0	0	512	569	
12	0	0	0	0	513	569	
13	0	0	0	0	512	569	
14	0	0	0	0	512	569	
15	0	0	0	0	511	569	
0	0	0	0	0	511	569	
1	0	0	0	0	510	569	
2	0	0	0	0	507	569	
3	0	0	0	0	505	569	
4	0	0	0	0	504	569	
5	0	0	0	0	502	570	
6	0	0	0	0	502	569	
7	0	0	0	0	500	569	
8	0	0	0	0	499	569	
9	0	0	0	0	500	569	
10	0	0	0	0	500	569	
11	0	0	0	0	501	569	
12	0	0	0	0	502	570	
13	0	0	0	0	503	569	
14	0	0	0	0	503	570	
15	0	0	0	0	502	570	
0	0	0	0	0	502	570	
1	0	0	0	0	501	570	
2	0	0	0	0	501	570	
3	0	0	0	0	502	570	
4	0	0	0	0	502	570	
5	0	0	0	0	501	570	
6	0	0	0	0	499	570	
7	0	0	0	0	497	570	
8	0	0	0	0	495	570	
9	0	0	0	0	494	570	
10	0	0	0	0	494	570	
11	0	0	0	0	494	570	
12	0	0	0	0	494	570	
13	0	0	0	0	494	570	
14	0	0	0	0	493	570	
15	0	0	0	0	492	571	
0	0	0	0	0	491	570	
1	0	0	0	0	488	570	
2	0	0	0	0	487	570	
3	0	0	0	0	486	570	
4	0	0	0	0	486	570	
5	0	0	0	0	487	570	
6	0	0	0	0	489	570	
7	0	0	0	0	490	570	
8	0	0	0	0	491	571	
9	0	0	0	0	492	570	
10	0	0	0	0	492	571	
11	0	0	0	0	493	570	
12	0	0	0	0	493	570	
13	0	0	0	0	494	571	
14	0	0	0	0	494	570	
15	0	0	0	0	495	571	
0	0	0	0	0	494	571	
1	0	0	0	0	494	571	
2	0	0	0	0	494	571	
3	0	0	0	0	494	571	
4	0	0	0	0	494	571	
5	0	0	0	0	494	571	
6	0	0	0	0	493	570	
7	0	0	0	0	492	570	
8	0	0	0	0	491	570	
9	0	0	0	0	490	570	
10	0	0	0	0	488	571	
11	0	0	0	0	488	571	
12	0	0	0	0	487	571	
13	0	0	0	0	487	570	
14	0	0	0	0	487	570	
15	0	0	0	0	487	571	
0	0	0	0	0	486	571	
1	0	0	0	0	486	570	
2	0	0	0	0	486	571	
3	0	0	0	0	485	570	
4	0	0	0	0	486	570	
5	0	0	0	0	486	570	
6	0	0	0	0	486	570	
7	0	0	0	0	486	570	
8	0	0	0	0	486	570	
9	0	0	0	0	485	570	
10	0	0	0	0	485	570	
11	0	0	0	0	485	571	
12	0	0	0	0	486	570	
13	0	0	0	0	487	571	
14	0	0	0	0	486	570	
15	0	0	0	0	485	570	
0	0	0	0	0	485	570	
1	0	0	0	0	487	570	
2	0	0	0	0	489	571	
3	0	0	0	0	488	569	
4	0	0	0	0	487	570	
5	0	0	0	0	487	570	
6	0	0	0	0	487	570	
7	0	0	0	0	486	570	
8	0	0	0	0	487	570	
9	0	0	0	0	488	570	
10	0	0	0	0	488	570	
11	0	0	0	0	488	570	
12	0	0	0	0	488	570	
13	0	0	0	0	487	570	
14	0	0	0	0	487	569	
15	0	0	0	0	487	570	
0	0	0	0	0	488	569	
1	0	0	0	0	487	570	
2	0	0	0	0	487	570	
3	0	0	0	0	489	569	
4	0	0	0	0	492	569	
5	0	0	0	0	494	569	
6	0	0	0	0	495	569	
7	0	0	0	0	496	569	
8	0	0	0	0	497	569	
9	0	0	0	0	498	569	
10	0	0	0	0	498	569	
11	0	0	0	0	500	569	
12	0	0	0	0	502	569	
13	0	0	0	0	502	569	
14	0	0	0	0	501	569	
15	0	0	0	0	499	568	
0	0	0	0	0	496	569	
1	0	0	0	0	492	569	
2	0	0	0	0	487	569	
3	0	0	0	0	483	569	
4	0	0	0	0	482	569	
5	0	0	0	0	483	569	
6	0	0	0	0	487	569	
7	0	0	0	0	493	568	
8	0	0	0	0	497	568	
9	0	0	0	0	500	568	
10	0	0	0	0	502	568	
11	0	0	0	0	503	568	
12	0	0	0	0	506	568	
13	0	0	0	0	512	568	
14	0	0	0	0	516	568	
15	0	0	0	0	522	568	
0	0	0	0	0	527	568	
1	0	0	0	0	533	568	
2	0	0	0	0	537	568	
3	0	0	0	0	542	568	
4	0	0	0	0	543	568	
5	0	0	0	0	543	568	
6	0	0	0	0	542	568	
7	0	0	0	0	540	568	
8	0	0	0	0	537	568	
9	0	0	0	0	536	568	
10	0	0	0	0	534	568	
11	0	0	0	0	534	567	
12	0	0	0	0	534	568	
13	0	0	0	0	534	567	
14	0	0	0	0	534	568	
15	0	0	0	0	534	567	
0	0	0	0	0	536	568	
1	0	0	0	0	537	567	
2	0	0	0	0	539	567	
3	0	0	0	0	539	567	
4	0	0	0	0	539	567	
5	0	0	0	0	540	567	
6	0	0	0	0	541	567	
7	0	0	0	0	542	567	
8	0	0	0	0	541	567	
9	0	0	0	0	540	567	
10	0	0	0	0	539	567	
11	0	0	0	0	538	567	
12	0	0	0	0	537	567	
13	0	0	0	0	536	567	
14	0	0	0	0	534	567	
15	0	0	0	0	532	567	
0	0	0	0	0	532	567	
1	0	0	0	0	531	566	
2	0	0	0	0	531	567	
3	0	0	0	0	531	566	
4	0	0	0	0	531	567	
5	0	0	0	0	531	567	
6	0	0	0	0	532	566	
7	0	0	0	0	534	567	
8	0	0	0	0	536	566	
9	0	0	0	0	537	567	
10	0	0	0	0	537	567	
11	0	0	0	0	537	566	
12	0	0	0	0	536	567	
13	0	0	0	0	536	567	
14	0	0	0	0	535	566	
15	0	0	0	0	534	566	
0	0	0	0	0	535	566	
1	0	0	0	0	535	566	
2	0	0	0	0	534	566	
3	0	0	0	0	534	567	
4	0	0	0	0	535	566	
5	0	0	0	0	535	566	
6	0	0	0	0	536	566	
7	0	0	0	0	537	565	
8	0	0	0	0	537	567	
9	0	0	0	0	537	566	
10	0	0	0	0	536	566	
11	0	0	0	0	532	566	
12	0	0	0	0	527	566	
13	0	0	0	0	521	566	
14	0	0	0	0	515	566	
15	0	0	0	0	511	566	
0	0	0	0	0	509	566	
1	0	0	0	0	509	566	
2	0	0	0	0	511	566	
3	0	0	0	0	514	566	
4	0	0	0	0	518	566	
5	0	0	0	0	524	567	
6	0	0	0	0	527	566	
7	0	0	0	0	532	566	
8	0	0	0	0	536	567	
9	0	0	0	0	537	566	
10	0	0	0	0	537	566	
11	0	0	0	0	537	566	
12	0	0	0	0	537	566	
13	0	0	0	0	538	566	
14	0	0	0	0	540	566	
15	0	0	0	0	540	566	
0	0	0	0	0	540	567	
1	0	0	0	0	540	567	
2	0	0	0	0	539	566	
3	0	0	0	0	537	567	
4	0	0	0	0	535	567	
5	0	0	0	0	534	566	
6	0	0	0	0	532	567	
7	0	0	0	0	531	566	
8	0	0	0	0	529	567	
9	0	0	0	0	527	567	
10	0	0	0	0	525	566	
11	0	0	0	0	525	567	
12	0	0	0	0	524	566	
13	0	0	0	0	524	567	
14	0	0	0	0	520	567	
15	0	0	0	0	515	567	
0	0	0	0	0	510	566	
1	0	0	0	0	504	567	
2	0	0	0	0	498	567	
3	0	0	0	0	494	567	
4	0	0	0	0	493	567	
5	0	0	0	0	494	567	
6	0	0	0	0	495	567	
7	0	0	0	0	497	566	
8	0	0	0	0	502	567	
9	0	0	0	0	511	567	
10	0	0	0	0	520	567	
11	0	0	0	0	528	567	
12	0	0	0	0	534	567	
13	0	0	0	0	540	566	
14	0	0	0	0	545	567	
15	0	0	0	0	549	567	
0	0	0	0	0	551	567	
1	0	0	0	0	549	566	
2	0	0	0	0	545	567	
3	0	0	0	0	544	567	
4	0	0	0	0	543	567	
5	0	0	0	0	540	566	
6	0	0	0	0	539	567	
7	0	0	0	0	539	567	
8	0	0	0	0	539	567	
9	0	0	0	0	539	567	
10	0	0	0	0	538	567	
11	0	0	0	0	536	567	
12	0	0	0	0	534	567	
13	0	0	0	0	531	567	
14	0	0	0	0	529	567	
15	0	0	0	0	530	567	
0	0	0	0	0	531	567	
1	0	0	0	0	529	567	
2	0	0	0	0	528	566	
3	0	0	0	0	527	566	
4	0	0	0	0	527	567	
5	0	0	0	0	526	566	
6	0	0	0	0	523	566	
7	0	0	0	0	520	566	
8	0	0	0	0	519	566	
9	0	0	0	0	518	566	
10	0	0	0	0	517	567	
11	0	0	0	0	515	567	
12	0	0	0	0	514	566	
13	0	0	0	0	514	566	
14	0	0	0	0	513	567	
15	0	0	0	0	513	566	
0	0	0	0	0	513	567	
1	0	0	0	0	513	567	
2	0	0	0	0	512	566	
3	0	0	0	0	512	566	
4	0	0	0	0	511	566	
5	0	0	0	0	511	566	
6	0	0	0	0	510	566	
7	0	0	0	0	510	566	
8	0	0	0	0	510	566	
9	0	0	0	0	510	566	
10	0	0	0	0	508	566	
11	0	0	0	0	507	566	
12	0	0	0	0	508	566	
13	0	0	0	0	508	566	
14	0	0	0	0	507	566	
15	0	0	0	0	507	566	
0	0	0	0	0	506	566	
1	0	0	0	0	505	566	
2	0	0	0	0	505	566	
3	0	0	0	0	505	566	
4	0	0	0	0	505	566	
5	0	0	0	0	506	566	
6	0	0	0	0	507	565	
7	0	0	0	0	508	565	
8	0	0	0	0	509	565	
9	0	0	0	0	510	565	
10	0	0	0	0	512	565	
11	0	0	0	0	514	565	
12	0	0	0	0	516	565	
13	0	0	0	0	515	565	
14	0	0	0	0	515	564	
15	0	0	0	0	514	565	
0	0	0	0	0	513	565	
1	0	0	0	0	514	564	
2	0	0	0	0	514	564	
3	0	0	0	0	515	564	
4	0	0	0	0	516	564	
5	0	0	0	0	518	564	
6	0	0	0	0	519	564	
7	0	0	0	0	519	564	
8	0	0	0	0	516	564	
9	0	0	0	0	511	564	
10	0	0	0	0	502	564	
11	0	0	0	0	494	564	
12	0	0	0	0	483	564	
13	0	0	0	0	476	564	
14	0	0	0	0	471	563	
15	0	0	0	0	468	563	
0	0	0	0	0	468	563	
1	0	0	0	0	470	563	
2	0	0	0	0	473	563	
3	0	0	0	0	481	563	
4	0	0	0	0	489	563	
5	0	0	0	0	497	563	
6	0	0	0	0	506	563	
7	0	0	0	0	513	562	
8	0	0	0	0	519	563	
9	0	0	0	0	524	562	
10	0	0	0	0	529	562	
11	0	0	0	0	532	562	
12	0	0	0	0	533	562	
13	0	0	0	0	531	563	
14	0	0	0	0	527	562	
15	0	0	0	0	522	562	
0	0	0	0	0	519	562	
1	0	0	0	0	516	562	
2	0	0	0	0	515	562	
3	0	0	0	0	515	562	
4	0	0	0	0	517	562	
5	0	0	0	0	522	561	
6	0	0	0	0	527	561	
7	0	0	0	0	531	561	
8	0	0	0	0	536	561	
9	0	0	0	0	538	561	
10	0	0	0	0	537	561	
11	0	0	0	0	535	561	
12	0	0	0	0	534	561	
13	0	0	0	0	533	561	
14	0	0	0	0	532	560	
15	0	0	0	0	532	560	
0	0	0	0	0	531	560	
1	0	0	0	0	530	561	
2	0	0	0	0	528	560	
3	0	0	0	0	527	560	
4	0	0	0	0	526	560	
5	0	0	0	0	524	560	
6	0	0	0	0	521	560	
7	0	0	0	0	519	560	
8	0	0	0	0	516	560	
9	0	0	0	0	513	560	
10	0	0	0	0	510	560	
11	0	0	0	0	507	559	
12	0	0	0	0	505	559	
13	0	0	0	0	505	559	
14	0	0	0	0	505	559	
15	0	0	0	0	506	559	
0	0	0	0	0	507	559	
1	0	0	0	0	508	559	
2	0	0	0	0	511	559	
3	0	0	0	0	513	559	
4	0	0	0	0	514	558	
5	0	0	0	0	515	558	
6	0	0	0	0	518	558	
7	0	0	0	0	518	558	
8	0	0	0	0	518	558	
9	0	0	0	0	517	558	
10	0	0	0	0	515	558	
11	0	0	0	0	512	558	
12	0	0	0	0	510	558	
13	0	0	0	0	506	558	
14	0	0	0	0	500	557	
15	0	0	0	0	495	557	
0	0	0	0	0	489	557	
1	0	0	0	0	486	557	
2	0	0	0	0	484	556	
3	0	0	0	0	486	556	
4	0	0	0	0	490	557	
5	0	0	0	0	495	557	
6	0	0	0	0	503	556	
7	0	0	0	0	511	556	
8	0	0	0	0	518	556	
9	0	0	0	0	521	556	
10	0	0	0	0	521	556	
11	0	0	0	0	519	556	
12	0	0	0	0	515	556	
13	0	0	0	0	508	555	
14	0	0	0	0	499	556	
15	0	0	0	0	491	556	
0	0	0	0	0	486	555	
1	0	0	0	0	481	555	
2	0	0	0	0	474	555	
3	0	0	0	0	470	555	
4	0	0	0	0	466	555	
5	0	0	0	0	465	555	
6	0	0	0	0	466	555	
7	0	0	0	0	468	555	
8	0	0	0	0	472	555	
9	0	0	0	0	477	555	
10	0	0	0	0	483	555	
11	0	0	0	0	490	554	
12	0	0	0	0	495	554	
13	0	0	0	0	499	554	
14	0	0	0	0	503	554	
15	0	0	0	0	504	554	
0	0	0	0	0	503	553	
1	0	0	0	0	500	554	
2	0	0	0	0	496	553	
3	0	0	0	0	492	553	
4	0	0	0	0	489	553	
5	0	0	0	0	489	553	
6	0	0	0	0	489	553	
7	0	0	0	0	490	553	
8	0	0	0	0	494	553	
9	0	0	0	0	500	552	
10	0	0	0	0	508	553	
11	0	0	0	0	516	553	
12	0	0	0	0	523	552	
13	0	0	0	0	527	553	
14	0	0	0	0	528	552	
15	0	0	0	0	528	552	
0	0	0	0	0	528	552	
1	0	0	0	0	527	552	
2	0	0	0	0	528	552	
3	0	0	0	0	529	551	
4	0	0	0	0	529	551	
5	0	0	0	0	528	551	
6	0	0	0	0	527	551	
7	0	0	0	0	527	551	
8	0	0	0	0	525	551	
9	0	0	0	0	523	551	
10	0	0	0	0	521	551	
11	0	0	0	0	520	551	
12	0	0	0	0	515	551	
13	0	0	0	0	511	551	
14	0	0	0	0	506	551	
15	0	0	0	0	502	551	
0	0	0	0	0	501	551	
1	0	0	0	0	502	550	
2	0	0	0	0	503	551	
3	0	0	0	0	505	551	
4	0	0	0	0	509	551	
5	0	0	0	0	513	550	
6	0	0	0	0	517	550	
7	0	0	0	0	521	550	
8	0	0	0	0	526	549	
9	0	0	0	0	527	550	
10	0	0	0	0	527	550	
11	0	0	0	0	527	550	
12	0	0	0	0	527	549	
13	0	0	0	0	528	549	
14	0	0	0	0	527	549	
15	0	0	0	0	526	549	
0	0	0	0	0	526	549	
1	0	0	0	0	525	548	
2	0	0	0	0	524	549	
3	0	0	0	0	524	549	
4	0	0	0	0	525	548	
5	0	0	0	0	526	548	
6	0	0	0	0	527	548	
7	0	0	0	0	527	548	
8	0	0	0	0	527	548	
9	0	0	0	0	526	548	
10	0	0	0	0	526	548	
11	0	0	0	0	524	548	
12	0	0	0	0	523	548	
13	0	0	0	0	521	548	
14	0	0	0	0	519	547	
15	0	0	0	0	518	547	
0	0	0	0	0	518	547	
1	0	0	0	0	516	547	
2	0	0	0	0	515	547	
3	0	0	0	0	513	547	
4	0	0	0	0	512	547	
5	0	0	0	0	513	547	
6	0	0	0	0	513	547	
7	0	0	0	0	512	547	
8	0	0	0	0	511	547	
9	0	0	0	0	510	546	
10	0	0	0	0	508	546	
11	0	0	0	0	506	546	
12	0	0	0	0	504	546	
13	0	0	0	0	502	546	
14	0	0	0	0	502	546	
15	0	0	0	0	502	545	
0	0	0	0	0	503	545	
1	0	0	0	0	503	546	
2	0	0	0	0	504	545	
3	0	0	0	0	505	546	
4	0	0	0	0	508	545	
5	0	0	0	0	510	545	
6	0	0	0	0	510	545	
7	0	0	0	0	510	545	
8	0	0	0	0	509	545	
9	0	0	0	0	507	545	
10	0	0	0	0	507	545	
11	0	0	0	0	507	545	
12	0	0	0	0	504	544	
13	0	0	0	0	505	545	
14	0	0	0	0	506	544	
15	0	0	0	0	509	544	
0	0	0	0	0	511	544	
1	0	0	0	0	510	544	
2	0	0	0	0	511	544	
3	0	0	0	0	512	544	
4	0	0	0	0	514	543	
5	0	0	0	0	518	544	
6	0	0	0	0	524	543	
7	0	0	0	0	529	543	
8	0	0	0	0	534	544	
9	0	0	0	0	537	543	
10	0	0	0	0	537	543	
11	0	0	0	0	536	543	
12	0	0	0	0	535	543	
13	0	0	0	0	531	543	
14	0	0	0	0	526	543	
15	0	0	0	0	519	543	
0	0	0	0	0	512	543	
1	0	0	0	0	506	543	
2	0	0	0	0	499	543	
3	0	0	0	0	491	543	
4	0	0	0	0	483	543	
5	0	0	0	0	477	543	
6	0	0	0	0	473	543	
7	0	0	0	0	471	542	
8	0	0	0	0	468	542	
9	0	0	0	0	465	543	
10	0	0	0	0	461	542	
11	0	0	0	0	458	542	
12	0	0	0	0	457	542	
13	0	0	0	0	458	542	
14	0	0	0	0	456	542	
15	0	0	0	0	455	542	
0	0	0	0	0	453	542	
1	0	0	0	0	451	541	
2	0	0	0	0	444	542	
3	0	0	0	0	436	541	
4	0	0	0	0	429	542	
5	0	0	0	0	425	541	
6	0	0	0	0	422	541	
7	0	0	0	0	420	542	
8	0	0	0	0	419	541	
9	0	0	0	0	419	541	
10	0	0	0	0	423	541	
11	0	0	0	0	427	541	
12	0	0	0	0	432	541	
13	0	0	0	0	440	541	
14	0	0	0	0	447	540	
15	0	0	0	0	455	541	
0	0	0	0	0	463	540	
1	0	0	0	0	472	540	
2	0	0	0	0	480	540	
3	0	0	0	0	491	540	
4	0	0	0	0	504	540	
5	0	0	0	0	517	540	
6	0	0	0	0	530	540	
7	0	0	0	0	544	540	
8	0	0	0	0	558	540	
9	0	0	0	0	569	540	
10	0	0	0	0	580	540	
11	0	0	0	0	588	540	
12	0	0	0	0	594	539	
13	0	0	0	0	599	540	
14	0	0	0	0	602	539	
15	0	0	0	0	604	539	
0	0	0	0	0	605	540	
1	0	0	0	0	603	539	
2	0	0	0	0	599	539	
3	0	0	0	0	595	539	
4	0	0	0	0	591	539	
5	0	0	0	0	588	539	
6	0	0	0	0	584	539	
7	0	0	0	0	581	539	
8	0	0	0	0	579	539	
9	0	0	0	0	578	538	
10	0	0	0	0	578	538	
11	0	0	0	0	578	539	
12	0	0	0	0	578	538	
13	0	0	0	0	576	538	
14	0	0	0	0	573	539	
15	0	0	0	0	570	538	
0	0	0	0	0	567	538	
1	0	0	0	0	563	537	
2	0	0	0	0	560	537	
3	0	0	0	0	556	538	
4	0	0	0	0	551	538	
5	0	0	0	0	546	537	
6	0	0	0	0	540	537	
7	0	0	0	0	533	537	
8	0	0	0	0	525	537	
9	0	0	0	0	515	537	
10	0	0	0	0	507	537	
11	0	0	0	0	499	537	
12	0	0	0	0	496	537	
13	0	0	0	0	496	537	
14	0	0	0	0	499	536	
15	0	0	0	0	503	536	
0	0	0	0	0	507	536	
1	0	0	0	0	509	537	
2	0	0	0	0	511	536	
3	0	0	0	0	511	536	
4	0	0	0	0	508	536	
5	0	0	0	0	504	536	
6	0	0	0	0	502	536	
7	0	0	0	0	501	536	
8	0	0	0	0	499	536	
9	0	0	0	0	496	536	
10	0	0	0	0	495	536	
11	0	0	0	0	498	536	
12	0	0	0	0	501	535	
13	0	0	0	0	503	536	
14	0	0	0	0	507	535	
15	0	0	0	0	512	535	
0	0	0	0	0	515	535	
1	0	0	0	0	517	535	
2	0	0	0	0	516	536	
3	0	0	0	0	513	535	
4	0	0	0	0	512	535	
5	0	0	0	0	511	535	
6	0	0	0	0	510	535	
7	0	0	0	0	511	535	
8	0	0	0	0	510	535	
9	0	0	0	0	509	535	
10	0	0	0	0	510	535	
11	0	0	0	0	510	535	
12	0	0	0	0	511	535	
13	0	0	0	0	512	535	
14	0	0	0	0	514	535	
15	0	0	0	0	514	534	
0	0	0	0	0	513	534	
1	0	0	0	0	510	535	
2	0	0	0	0	505	535	
3	0	0	0	0	498	534	
4	0	0	0	0	493	534	
5	0	0	0	0	486	534	
6	0	0	0	0	483	534	
7	0	0	0	0	482	534	
8	0	0	0	0	484	534	
9	0	0	0	0	490	534	
10	0	0	0	0	496	534	
11	0	0	0	0	499	534	
12	0	0	0	0	502	534	
13	0	0	0	0	503	534	
14	0	0	0	0	502	534	
15	0	0	0	0	503	534	
0	0	0	0	0	502	534	
1	0	0	0	0	502	534	
2	0	0	0	0	502	534	
3	0	0	0	0	503	534	
4	0	0	0	0	504	534	
5	0	0	0	0	505	533	
6	0	0	0	0	505	533	
7	0	0	0	0	507	534	
8	0	0	0	0	507	533	
9	0	0	0	0	507	533	
10	0	0	0	0	506	533	
11	0	0	0	0	505	533	
12	0	0	0	0	505	533	
13	0	0	0	0	505	533	
14	0	0	0	0	506	532	
15	0	0	0	0	507	533	
0	0	0	0	0	506	533	
1	0	0	0	0	506	533	
2	0	0	0	0	504	532	
3	0	0	0	0	504	533	
4	0	0	0	0	503	532	
5	0	0	0	0	502	532	
6	0	0	0	0	500	532	
7	0	0	0	0	499	532	
8	0	0	0	0	498	532	
9	0	0	0	0	497	532	
10	0	0	0	0	496	532	
11	0	0	0	0	494	532	
12	0	0	0	0	492	532	
13	0	0	0	0	493	532	
14	0	0	0	0	493	531	
15	0	0	0	0	494	532	
0	0	0	0	0	495	531	
1	0	0	0	0	496	532	
2	0	0	0	0	497	531	
3	0	0	0	0	497	531	
4	0	0	0	0	495	531	
5	0	0	0	0	492	531	
6	0	0	0	0	488	531	
7	0	0	0	0	487	531	
8	0	0	0	0	486	531	
9	0	0	0	0	487	531	
10	0	0	0	0	489	531	
11	0	0	0	0	491	531	
12	0	0	0	0	495	531	
13	0	0	0	0	497	531	
14	0	0	0	0	498	530	
15	0	0	0	0	498	531	
0	0	0	0	0	496	530	
1	0	0	0	0	491	531	
2	0	0	0	0	486	530	
3	0	0	0	0	479	530	
4	0	0	0	0	473	530	
5	0	0	0	0	467	530	
6	0	0	0	0	463	530	
7	0	0	0	0	461	530	
8	0	0	0	0	460	530	
9	0	0	0	0	459	529	
10	0	0	0	0	458	529	
11	0	0	0	0	457	530	
12	0	0	0	0	458	529	
13	0	0	0	0	460	530	
14	0	0	0	0	463	530	
15	0	0	0	0	466	529	
0	0	0	0	0	470	529	
1	0	0	0	0	474	529	
2	0	0	0	0	479	529	
3	0	0	0	0	483	529	
4	0	0	0	0	487	529	
5	0	0	0	0	491	529	
6	0	0	0	0	492	529	
7	0	0	0	0	494	529	
8	0	0	0	0	494	529	
9	0	0	0	0	494	529	
10	0	0	0	0	492	529	
11	0	0	0	0	489	528	
12	0	0	0	0	486	528	
13	0	0	0	0	483	528	
14	0	0	0	0	483	528	
15	0	0	0	0	484	528	
0	0	0	0	0	487	528	
1	0	0	0	0	491	528	
2	0	0	0	0	496	528	
3	0	0	0	0	500	528	
4	0	0	0	0	504	528	
5	0	0	0	0	507	528	
6	0	0	0	0	509	528	
7	0	0	0	0	510	527	
8	0	0	0	0	510	528	
9	0	0	0	0	509	527	
10	0	0	0	0	509	528	
11	0	0	0	0	508	527	
12	0	0	0	0	507	528	
13	0	0	0	0	505	527	
14	0	0	0	0	503	527	
15	0	0	0	0	500	527	
0	0	0	0	0	497	527	
1	0	0	0	0	495	527	
2	0	0	0	0	493	527	
3	0	0	0	0	490	527	
4	0	0	0	0	489	527	
5	0	0	0	0	487	527	
6	0	0	0	0	487	527	
7	0	0	0	0	487	527	
8	0	0	0	0	488	527	
9	0	0	0	0	489	527	
10	0	0	0	0	489	527	
11	0	0	0	0	489	527	
12	0	0	0	0	490	527	
13	0	0	0	0	489	527	
14	0	0	0	0	489	526	
15	0	0	0	0	488	527	
0	0	0	0	0	489	526	
1	0	0	0	0	488	527	
2	0	0	0	0	487	526	
3	0	0	0	0	488	526	
4	0	0	0	0	491	526	
5	0	0	0	0	494	526	
6	0	0	0	0	495	526	
7	0	0	0	0	496	526	
8	0	0	0	0	495	526	
9	0	0	0	0	492	526	
10	0	0	0	0	487	526	
11	0	0	0	0	483	526	
12	0	0	0	0	481	526	
13	0	0	0	0	482	525	
14	0	0	0	0	485	525	
15	0	0	0	0	488	525	
0	0	0	0	0	491	525	
1	0	0	0	0	492	525	
2	0	0	0	0	492	525	
3	0	0	0	0	492	525	
4	0	0	0	0	492	525	
5	0	0	0	0	492	525	
6	0	0	0	0	494	525	
7	0	0	0	0	497	525	
8	0	0	0	0	500	525	
9	0	0	0	0	502	525	
10	0	0	0	0	503	525	
11	0	0	0	0	503	524	
12	0	0	0	0	499	525	
13	0	0	0	0	495	524	
14	0	0	0	0	488	524	
15	0	0	0	0	482	524	
0	0	0	0	0	479	524	
1	0	0	0	0	479	524	
2	0	0	0	0	481	524	
3	0	0	0	0	489	524	
4	0	0	0	0	499	524	
5	0	0	0	0	508	524	
6	0	0	0	0	518	524	
7	0	0	0	0	526	524	
8	0	0	0	0	532	524	
9	0	0	0	0	537	524	
10	0	0	0	0	540	524	
11	0	0	0	0	543	524	
12	0	0	0	0	547	523	
13	0	0	0	0	551	524	
14	0	0	0	0	553	523	
15	0	0	0	0	556	523	
0	0	0	0	0	559	523	
1	0	0	0	0	558	523	
2	0	0	0	0	554	523	
3	0	0	0	0	548	523	
4	0	0	0	0	543	523	
5	0	0	0	0	540	523	
6	0	0	0	0	539	523	
7	0	0	0	0	538	523	
8	0	0	0	0	537	522	
9	0	0	0	0	536	523	
10	0	0	0	0	536	523	
11	0	0	0	0	535	522	
12	0	0	0	0	534	522	
13	0	0	0	0	535	523	
14	0	0	0	0	535	522	
15	0	0	0	0	534	522	
0	0	0	0	0	534	522	
1	0	0	0	0	535	522	
2	0	0	0	0	536	522	
3	0	0	0	0	537	521	
4	0	0	0	0	537	522	
5	0	0	0	0	538	521	
6	0	0	0	0	538	521	
7	0	0	0	0	537	521	
8	0	0	0	0	536	521	
9	0	0	0	0	536	521	
10	0	0	0	0	535	521	
11	0	0	0	0	534	521	
12	0	0	0	0	534	521	
13	0	0	0	0	534	521	
14	0	0	0	0	534	521	
15	0	0	0	0	534	520	
0	0	0	0	0	534	521	
1	0	0	0	0	535	520	
2	0	0	0	0	535	520	
3	0	0	0	0	535	521	
4	0	0	0	0	536	520	
5	0	0	0	0	536	520	
6	0	0	0	0	537	520	
7	0	0	0	0	540	520	
8	0	0	0	0	541	519	
9	0	0	0	0	542	520	
10	0	0	0	0	541	519	
11	0	0	0	0	539	519	
12	0	0	0	0	537	519	
13	0	0	0	0	534	519	
14	0	0	0	0	528	519	
15	0	0	0	0	524	519	
0	0	0	0	0	520	519	
1	0	0	0	0	519	519	
2	0	0	0	0	518	519	
3	0	0	0	0	518	519	
4	0	0	0	0	515	519	
5	0	0	0	0	512	519	
6	0	0	0	0	511	519	
7	0	0	0	0	507	519	
8	0	0	0	0	504	519	
9	0	0	0	0	505	519	
10	0	0	0	0	506	519	
11	0	0	0	0	507	519	
12	0	0	0	0	510	519	
13	0	0	0	0	514	519	
14	0	0	0	0	519	519	
15	0	0	0	0	525	518	
0	0	0	0	0	531	519	
1	0	0	0	0	535	518	
2	0	0	0	0	537	518	
3	0	0	0	0	539	518	
4	0	0	0	0	540	519	
5	0	0	0	0	543	518	
6	0	0	0	0	548	518	
7	0	0	0	0	553	518	
8	0	0	0	0	557	518	
9	0	0	0	0	558	518	
10	0	0	0	0	560	518	
11	0	0	0	0	562	518	
12	0	0	0	0	564	518	
13	0	0	0	0	564	518	
14	0	0	0	0	560	518	
15	0	0	0	0	556	518	
0	0	0	0	0	551	518	
1	0	0	0	0	545	518	
2	0	0	0	0	540	518	
3	0	0	0	0	538	518	
4	0	0	0	0	536	518	
5	0	0	0	0	536	518	
6	0	0	0	0	533	517	
7	0	0	0	0	530	517	
8	0	0	0	0	528	518	
9	0	0	0	0	528	518	
10	0	0	0	0	527	517	
11	0	0	0	0	525	517	
12	0	0	0	0	523	517	
13	0	0	0	0	522	517	
14	0	0	0	0	520	517	
15	0	0	0	0	517	517	
0	0	0	0	0	513	517	
1	0	0	0	0	508	517	
2	0	0	0	0	504	517	
3	0	0	0	0	502	517	
4	0	0	0	0	504	517	
5	0	0	0	0	504	517	
6	0	0	0	0	505	517	
7	0	0	0	0	505	517	
8	0	0	0	0	508	517	
9	0	0	0	0	512	517	
10	0	0	0	0	515	516	
11	0	0	0	0	519	516	
12	0	0	0	0	521	517	
13	0	0	0	0	522	517	
14	0	0	0	0	522	516	
15	0	0	0	0	521	516	
0	0	0	0	0	520	517	
1	0	0	0	0	519	517	
2	0	0	0	0	518	517	
3	0	0	0	0	516	517	
4	0	0	0	0	515	516	
5	0	0	0	0	516	516	
6	0	0	0	0	517	516	
7	0	0	0	0	518	516	
8	0	0	0	0	518	516	
9	0	0	0	0	518	516	
10	0	0	0	0	517	516	
11	0	0	0	0	515	516	
12	0	0	0	0	510	516	
13	0	0	0	0	506	516	
14	0	0	0	0	503	516	
15	0	0	0	0	500	516	
0	0	0	0	0	498	516	
1	0	0	0	0	497	516	
2	0	0	0	0	497	516	
3	0	0	0	0	497	516	
4	0	0	0	0	498	516	
5	0	0	0	0	499	516	
6	0	0	0	0	499	516	
7	0	0	0	0	498	515	
8	0	0	0	0	498	516	
9	0	0	0	0	499	515	
10	0	0	0	0	503	516	
11	0	0	0	0	506	516	
12	0	0	0	0	510	516	
13	0	0	0	0	512	516	
14	0	0	0	0	514	516	
15	0	0	0	0	515	516	
0	0	0	0	0	517	516	
1	0	0	0	0	518	516	
2	0	0	0	0	518	516	
3	0	0	0	0	516	515	
4	0	0	0	0	514	515	
5	0	0	0	0	511	515	
6	0	0	0	0	509	515	
7	0	0	0	0	505	516	
8	0	0	0	0	503	515	
9	0	0	0	0	501	516	
10	0	0	0	0	501	515	
11	0	0	0	0	503	516	
12	0	0	0	0	504	515	
13	0	0	0	0	505	515	
14	0	0	0	0	507	515	
15	0	0	0	0	509	516	
0	0	0	0	0	510	515	
1	0	0	0	0	508	515	
2	0	0	0	0	506	515	
3	0	0	0	0	501	515	
4	0	0	0	0	496	515	
5	0	0	0	0	491	515	
6	0	0	0	0	487	515	
7	0	0	0	0	486	515	
8	0	0	0	0	487	515	
9	0	0	0	0	490	515	
10	0	0	0	0	493	515	
11	0	0	0	0	497	515	
12	0	0	0	0	500	515	
13	0	0	0	0	504	515	
14	0	0	0	0	506	515	
15	0	0	0	0	508	515	
0	0	0	0	0	508	515	
1	0	0	0	0	507	515	
2	0	0	0	0	504	515	
3	0	0	0	0	498	515	
4	0	0	0	0	492	515	
5	0	0	0	0	487	515	
6	0	0	0	0	483	515	
7	0	0	0	0	483	515	
8	0	0	0	0	487	515	
9	0	0	0	0	494	515	
10	0	0	0	0	500	515	
11	0	0	0	0	506	515	
12	0	0	0	0	510	515	
13	0	0	0	0	513	515	
14	0	0	0	0	517	515	
15	0	0	0	0	519	515	
0	0	0	0	0	519	515	
1	0	0	0	0	519	515	
2	0	0	0	0	518	515	
3	0	0	0	0	518	515	
4	0	0	0	0	518	515	
5	0	0	0	0	519	515	
6	0	0	0	0	518	515	
7	0	0	0	0	515	515	
8	0	0	0	0	513	515	
9	0	0	0	0	510	515	
10	0	0	0	0	506	515	
11	0	0	0	0	503	515	
12	0	0	0	0	501	515	
13	0	0	0	0	502	515	
14	0	0	0	0	504	515	
15	0	0	0	0	509	515	
0	0	0	0	0	512	515	
1	0	0	0	0	515	515	
2	0	0	0	0	519	515	
3	0	0	0	0	524	515	
4	0	0	0	0	528	515	
5	0	0	0	0	528	515	
6	0	0	0	0	524	515	
7	0	0	0	0	521	515	
8	0	0	0	0	517	515	
9	0	0	0	0	513	515	
10	0	0	0	0	509	515	
11	0	0	0	0	506	515	
12	0	0	0	0	504	515	
13	0	0	0	0	502	515	
14	0	0	0	0	501	515	
15	0	0	0	0	500	515	
0	0	0	0	0	499	515	
1	0	0	0	0	499	515	
2	0	0	0	0	498	515	
3	0	0	0	0	498	515	
4	0	0	0	0	499	515	
5	0	0	0	0	501	515	
6	0	0	0	0	503	515	
7	0	0	0	0	503	515	
8	0	0	0	0	503	515	
9	0	0	0	0	503	515	
10	0	0	0	0	502	515	
11	0	0	0	0	502	515	
12	0	0	0	0	502	515	
13	0	0	0	0	502	515	
14	0	0	0	0	504	515	
15	0	0	0	0	507	515	
0	0	0	0	0	509	515	
1	0	0	0	0	511	515	
2	0	0	0	0	510	515	
3	0	0	0	0	509	515	
4	0	0	0	0	508	515	
5	0	0	0	0	505	515	
6	0	0	0	0	504	515	
7	0	0	0	0	503	515	
8	0	0	0	0	504	515	
9	0	0	0	0	507	515	
10	0	0	0	0	512	515	
11	0	0	0	0	515	515	
12	0	0	0	0	518	515	
13	0	0	0	0	521	515	
14	0	0	0	0	521	515	
15	0	0	0	0	519	515	
0	0	0	0	0	518	515	
1	0	0	0	0	517	515	
2	0	0	0	0	516	515	
3	0	0	0	0	517	515	
4	0	0	0	0	517	515	
5	0	0	0	0	517	515	
6	0	0	0	0	518	515	
7	0	0	0	0	518	515	
8	0	0	0	0	518	515	
9	0	0	0	0	517	516	
10	0	0	0	0	515	515	
11	0	0	0	0	513	515	
12	0	0	0	0	513	515	
13	0	0	0	0	515	515	
14	0	0	0	0	516	515	
15	0	0	0	0	516	515	
0	0	0	0	0	516	516	
1	0	0	0	0	516	516	
2	0	0	0	0	516	515	
3	0	0	0	0	515	515	
4	0	0	0	0	514	515	
5	0	0	0	0	513	515	
6	0	0	0	0	511	516	
7	0	0	0	0	507	515	
8	0	0	0	0	505	515	
9	0	0	0	0	505	515	
10	0	0	0	0	505	516	
11	0	0	0	0	506	516	
12	0	0	0	0	506	515	
13	0	0	0	0	505	515	
14	0	0	0	0	504	516	
15	0	0	0	0	503	515	
0	0	0	0	0	500	516	
1	0	0	0	0	500	516	
2	0	0	0	0	501	516	
3	0	0	0	0	503	515	
4	0	0	0	0	506	515	
5	0	0	0	0	510	515	
6	0	0	0	0	514	515	
7	0	0	0	0	518	515	
8	0	0	0	0	520	516	
9	0	0	0	0	520	515	
10	0	0	0	0	519	516	
11	0	0	0	0	517	516	
12	0	0	0	0	515	516	
13	0	0	0	0	514	516	
14	0	0	0	0	512	515	
15	0	0	0	0	510	516	
0	0	0	0	0	510	516	
1	0	0	0	0	511	516	
2	0	0	0	0	511	516	
3	0	0	0	0	512	516	
4	0	0	0	0	512	516	
5	0	0	0	0	514	515	
6	0	0	0	0	516	515	
7	0	0	0	0	517	515	
8	0	0	0	0	518	516	
9	0	0	0	0	518	516	
10	0	0	0	0	516	516	
11	0	0	0	0	515	515	
12	0	0	0	0	510	515	
13	0	0	0	0	507	515	
14	0	0	0	0	504	516	
15	0	0	0	0	505	516	
0	0	0	0	0	507	516	
1	0	0	0	0	510	516	
2	0	0	0	0	513	516	
3	0	0	0	0	517	516	
4	0	0	0	0	521	516	
5	0	0	0	0	524	516	
6	0	0	0	0	527	515	
7	0	0	0	0	529	516	
8	0	0	0	0	530	516	
9	0	0	0	0	531	516	
10	0	0	0	0	531	516	
11	0	0	0	0	532	516	
12	0	0	0	0	531	516	
13	0	0	0	0	529	516	
14	0	0	0	0	526	516	
15	0	0	0	0	522	516	
0	0	0	0	0	519	516	
1	0	0	0	0	519	516	
2	0	0	0	0	519	516	
3	0	0	0	0	521	516	
4	0	0	0	0	525	516	
5	0	0	0	0	530	516	
6	0	0	0	0	532	515	
7	0	0	0	0	536	516	
8	0	0	0	0	540	516	
9	0	0	0	0	544	516	
10	0	0	0	0	545	516	
11	0	0	0	0	544	516	
12	0	0	0	0	542	516	
13	0	0	0	0	538	516	
14	0	0	0	0	536	515	
15	0	0	0	0	534	516	
0	0	0	0	0	534	515	
1	0	0	0	0	532	515	
2	0	0	0	0	529	516	
3	0	0	0	0	526	515	
4	0	0	0	0	522	516	
5	0	0	0	0	521	515	
6	0	0	0	0	521	515	
7	0	0	0	0	524	516	
8	0	0	0	0	527	516	
9	0	0	0	0	534	515	
10	0	0	0	0	540	516	
11	0	0	0	0	544	515	
12	0	0	0	0	547	515	
13	0	0	0	0	548	515	
14	0	0	0	0	545	515	
15	0	0	0	0	542	515	
0	0	0	0	0	537	515	
1	0	0	0	0	532	515	
2	0	0	0	0	528	515	
3	0	0	0	0	523	515	
4	0	0	0	0	519	515	
5	0	0	0	0	517	515	
6	0	0	0	0	517	515	
7	0	0	0	0	518	515	
8	0	0	0	0	519	515	
9	0	0	0	0	521	515	
10	0	0	0	0	523	515	
11	0	0	0	0	525	515	
12	0	0	0	0	527	515	
13	0	0	0	0	527	515	
14	0	0	0	0	528	515	
15	0	0	0	0	529	515	
0	0	0	0	0	531	515	
1	0	0	0	0	531	515	
2	0	0	0	0	527	515	
3	0	0	0	0	524	515	
4	0	0	0	0	519	515	
5	0	0	0	0	515	515	
6	0	0	0	0	512	515	
7	0	0	0	0	512	515	
8	0	0	0	0	512	514	
9	0	0	0	0	512	515	
10	0	0	0	0	511	515	
11	0	0	0	0	509	515	
12	0	0	0	0	505	514	
13	0	0	0	0	500	515	
14	0	0	0	0	497	515	
15	0	0	0	0	493	515	
0	0	0	0	0	489	515	
1	0	0	0	0	483	515	
2	0	0	0	0	478	515	
3	0	0	0	0	471	515	
4	0	0	0	0	463	514	
5	0	0	0	0	453	515	
6	0	0	0	0	444	514	
7	0	0	0	0	438	515	
8	0	0	0	0	431	514	
9	0	0	0	0	422	514	
10	0	0	0	0	413	514	
11	0	0	0	0	405	514	
12	0	0	0	0	402	514	
13	0	0	0	0	402	514	
14	0	0	0	0	402	514	
15	0	0	0	0	403	515	
0	0	0	0	0	406	514	
1	0	0	0	0	410	514	
2	0	0	0	0	414	514	
3	0	0	0	0	419	514	
4	0	0	0	0	423	514	
5	0	0	0	0	428	514	
6	0	0	0	0	434	514	
7	0	0	0	0	442	513	
8	0	0	0	0	454	513	
9	0	0	0	0	470	513	
10	0	0	0	0	486	514	
11	0	0	0	0	505	513	
12	0	0	0	0	523	513	
13	0	0	0	0	539	514	
14	0	0	0	0	555	514	
15	0	0	0	0	568	514	
0	0	0	0	0	579	513	
1	0	0	0	0	588	513	
2	0	0	0	0	596	513	
3	0	0	0	0	604	514	
4	0	0	0	0	611	514	
5	0	0	0	0	615	513	
6	0	0	0	0	618	513	
7	0	0	0	0	621	513	
8	0	0	0	0	623	513	
9	0	0	0	0	623	514	
10	0	0	0	0	620	513	
11	0	0	0	0	614	513	
12	0	0	0	0	608	513	
13	0	0	0	0	601	513	
14	0	0	0	0	596	513	
15	0	0	0	0	592	513	
0	0	0	0	0	590	513	
1	0	0	0	0	589	513	
2	0	0	0	0	587	513	
3	0	0	0	0	584	513	
4	0	0	0	0	582	513	
5	0	0	0	0	578	513	
6	0	0	0	0	572	513	
7	0	0	0	0	564	513	
8	0	0	0	0	556	513	
9	0	0	0	0	548	513	
10	0	0	0	0	542	513	
11	0	0	0	0	536	513	
12	0	0	0	0	530	513	
13	0	0	0	0	526	512	
14	0	0	0	0	523	512	
15	0	0	0	0	523	513	
0	0	0	0	0	524	512	
1	0	0	0	0	526	512	
2	0	0	0	0	526	512	
3	0	0	0	0	525	512	
4	0	0	0	0	523	512	
5	0	0	0	0	519	512	
6	0	0	0	0	517	512	
7	0	0	0	0	518	512	
8	0	0	0	0	519	512	
9	0	0	0	0	521	512	
10	0	0	0	0	522	512	
11	0	0	0	0	519	512	
12	0	0	0	0	517	512	
13	0	0	0	0	514	512	
14	0	0	0	0	510	512	
15	0	0	0	0	507	512	
0	0	0	0	0	504	512	
1	0	0	0	0	502	512	
2	0	0	0	0	502	511	
3	0	0	0	0	502	512	
4	0	0	0	0	504	512	
5	0	0	0	0	506	512	
6	0	0	0	0	506	512	
7	0	0	0	0	507	511	
8	0	0	0	0	506	512	
9	0	0	0	0	504	512	
10	0	0	0	0	500	512	
11	0	0	0	0	497	512	
12	0	0	0	0	496	512	
13	0	0	0	0	496	511	
14	0	0	0	0	499	512	
15	0	0	0	0	502	511	
0	0	0	0	0	507	512	
1	0	0	0	0	511	511	
2	0	0	0	0	514	511	
3	0	0	0	0	516	511	
4	0	0	0	0	516	511	
5	0	0	0	0	513	511	
6	0	0	0	0	510	511	
7	0	0	0	0	509	511	
8	0	0	0	0	509	511	
9	0	0	0	0	511	511	
10	0	0	0	0	511	511	
11	0	0	0	0	510	511	
12	0	0	0	0	510	511	
13	0	0	0	0	509	511	
14	0	0	0	0	508	511	
15	0	0	0	0	506	511	
0	0	0	0	0	504	511	
1	0	0	0	0	501	511	
2	0	0	0	0	496	511	
3	0	0	0	0	491	511	
4	0	0	0	0	487	511	
5	0	0	0	0	484	511	
6	0	0	0	0	485	511	
7	0	0	0	0	488	511	
8	0	0	0	0	492	511	
9	0	0	0	0	497	511	
10	0	0	0	0	504	511	
11	0	0	0	0	509	511	
12	0	0	0	0	512	511	
13	0	0	0	0	513	511	
14	0	0	0	0	513	511	
15	0	0	0	0	514	510	
0	0	0	0	0	514	511	
1	0	0	0	0	516	511	
2	0	0	0	0	516	510	
3	0	0	0	0	515	511	
4	0	0	0	0	513	510	
5	0	0	0	0	511	511	
6	0	0	0	0	508	510	
7	0	0	0	0	505	510	
8	0	0	0	0	500	511	
9	0	0	0	0	495	510	
10	0	0	0	0	493	511	
11	0	0	0	0	492	510	
12	0	0	0	0	495	511	
13	0	0	0	0	497	510	
14	0	0	0	0	502	510	
15	0	0	0	0	506	510	
0	0	0	0	0	510	510	
1	0	0	0	0	513	510	
2	0	0	0	0	513	510	
3	0	0	0	0	512	510	
4	0	0	0	0	508	510	
5	0	0	0	0	502	510	
6	0	0	0	0	496	510	
7	0	0	0	0	491	510	
8	0	0	0	0	488	509	
9	0	0	0	0	484	510	
10	0	0	0	0	483	510	
11	0	0	0	0	484	510	
12	0	0	0	0	484	510	
13	0	0	0	0	483	509	
14	0	0	0	0	482	510	
15	0	0	0	0	483	509	
0	0	0	0	0	483	509	
1	0	0	0	0	484	509	
2	0	0	0	0	486	509	
3	0	0	0	0	488	509	
4	0	0	0	0	492	509	
5	0	0	0	0	495	509	
6	0	0	0	0	497	509	
7	0	0	0	0	500	509	
8	0	0	0	0	503	509	
9	0	0	0	0	504	509	
10	0	0	0	0	506	509	
11	0	0	0	0	507	509	
12	0	0	0	0	508	509	
13	0	0	0	0	507	509	
14	0	0	0	0	503	508	
15	0	0	0	0	498	509	
0	0	0	0	0	491	509	
1	0	0	0	0	486	509	
2	0	0	0	0	482	509	
3	0	0	0	0	480	509	
4	0	0	0	0	480	509	
5	0	0	0	0	480	508	
6	0	0	0	0	480	508	
7	0	0	0	0	479	508	
8	0	0	0	0	479	508	
9	0	0	0	0	480	508	
10	0	0	0	0	479	508	
11	0	0	0	0	479	508	
12	0	0	0	0	480	508	
13	0	0	0	0	481	508	
14	0	0	0	0	481	508	
15	0	0	0	0	479	508	
0	0	0	0	0	477	508	
1	0	0	0	0	476	508	
2	0	0	0	0	478	508	
3	0	0	0	0	482	508	
4	0	0	0	0	485	508	
5	0	0	0	0	488	508	
6	0	0	0	0	489	508	
7	0	0	0	0	487	508	
8	0	0	0	0	482	508	
9	0	0	0	0	478	507	
10	0	0	0	0	476	508	
11	0	0	0	0	477	507	
12	0	0	0	0	480	508	
13	0	0	0	0	484	508	
14	0	0	0	0	486	507	
15	0	0	0	0	487	507	
0	0	0	0	0	484	508	
1	0	0	0	0	481	507	
2	0	0	0	0	477	507	
3	0	0	0	0	473	507	
4	0	0	0	0	469	507	
5	0	0	0	0	467	507	
6	0	0	0	0	466	507	
7	0	0	0	0	467	507	
8	0	0	0	0	467	507	
9	0	0	0	0	469	507	
10	0	0	0	0	472	507	
11	0	0	0	0	478	506	
12	0	0	0	0	481	507	
13	0	0	0	0	483	507	
14	0	0	0	0	484	507	
15	0	0	0	0	486	506	
0	0	0	0	0	487	506	
1	0	0	0	0	487	506	
2	0	0	0	0	487	506	
3	0	0	0	0	487	506	
4	0	0	0	0	487	506	
5	0	0	0	0	487	506	
6	0	0	0	0	487	506	
7	0	0	0	0	485	506	
8	0	0	0	0	483	506	
9	0	0	0	0	481	506	
10	0	0	0	0	480	506	
11	0	0	0	0	480	506	
12	0	0	0	0	483	506	
13	0	0	0	0	487	506	
14	0	0	0	0	493	506	
15	0	0	0	0	499	505	
0	0	0	0	0	503	505	
1	0	0	0	0	505	505	
2	0	0	0	0	504	505	
3	0	0	0	0	500	505	
4	0	0	0	0	496	505	
5	0	0	0	0	495	505	
6	0	0	0	0	492	505	
7	0	0	0	0	491	504	
8	0	0	0	0	491	505	
9	0	0	0	0	493	505	
10	0	0	0	0	495	505	
11	0	0	0	0	498	505	
12	0	0	0	0	502	504	
13	0	0	0	0	504	504	
14	0	0	0	0	506	504	
15	0	0	0	0	508	504	
0	0	0	0	0	508	504	
1	0	0	0	0	508	504	
2	0	0	0	0	506	504	
3	0	0	0	0	504	504	
4	0	0	0	0	504	504	
5	0	0	0	0	504	504	
6	0	0	0	0	505	504	
7	0	0	0	0	505	504	
8	0	0	0	0	507	504	
9	0	0	0	0	511	503	
10	0	0	0	0	515	503	
11	0	0	0	0	520	504	
12	0	0	0	0	525	503	
13	0	0	0	0	526	503	
14	0	0	0	0	522	503	
15	0	0	0	0	514	503	
0	0	0	0	0	505	503	
1	0	0	0	0	495	503	
2	0	0	0	0	489	503	
3	0	0	0	0	488	503	
4	0	0	0	0	491	503	
5	0	0	0	0	496	502	
6	0	0	0	0	504	502	
7	0	0	0	0	512	502	
8	0	0	0	0	519	502	
9	0	0	0	0	526	502	
10	0	0	0	0	532	502	
11	0	0	0	0	535	502	
12	0	0	0	0	536	502	
13	0	0	0	0	536	502	
14	0	0	0	0	537	502	
15	0	0	0	0	537	502	
0	0	0	0	0	538	501	
1	0	0	0	0	539	502	
2	0	0	0	0	541	502	
3	0	0	0	0	542	502	
4	0	0	0	0	542	501	
5	0	0	0	0	543	501	
6	0	0	0	0	544	501	
7	0	0	0	0	545	501	
8	0	0	0	0	543	501	
9	0	0	0	0	541	501	
10	0	0	0	0	538	501	
11	0	0	0	0	536	501	
12	0	0	0	0	534	500	
13	0	0	0	0	535	500	
14	0	0	0	0	535	500	
15	0	0	0	0	536	500	
0	0	0	0	0	537	500	
1	0	0	0	0	536	500	
2	0	0	0	0	533	500	
3	0	0	0	0	531	500	
4	0	0	0	0	529	500	
5	0	0	0	0	528	500	
6	0	0	0	0	529	500	
7	0	0	0	0	529	499	
8	0	0	0	0	530	499	
9	0	0	0	0	533	499	
10	0	0	0	0	536	499	
11	0	0	0	0	541	500	
12	0	0	0	0	544	499	
13	0	0	0	0	549	499	
14	0	0	0	0	552	499	
15	0	0	0	0	552	499	
0	0	0	0	0	551	499	
1	0	0	0	0	549	499	
2	0	0	0	0	548	499	
3	0	0	0	0	547	499	
4	0	0	0	0	545	499	
5	0	0	0	0	543	499	
6	0	0	0	0	540	498	
7	0	0	0	0	537	498	
8	0	0	0	0	536	499	
9	0	0	0	0	535	499	
10	0	0	0	0	534	499	
11	0	0	0	0	534	498	
12	0	0	0	0	533	498	
13	0	0	0	0	531	498	
14	0	0	0	0	528	498	
15	0	0	0	0	525	498	
0	0	0	0	0	522	498	
1	0	0	0	0	519	497	
2	0	0	0	0	520	498	
3	0	0	0	0	522	498	
4	0	0	0	0	525	498	
5	0	0	0	0	527	498	
6	0	0	0	0	527	497	
7	0	0	0	0	526	498	
8	0	0	0	0	523	498	
9	0	0	0	0	521	497	
10	0	0	0	0	520	497	
11	0	0	0	0	521	498	
12	0	0	0	0	524	497	
13	0	0	0	0	528	497	
14	0	0	0	0	533	497	
15	0	0	0	0	540	497	
0	0	0	0	0	547	497	
1	0	0	0	0	555	497	
2	0	0	0	0	559	497	
3	0	0	0	0	558	497	
4	0	0	0	0	552	497	
5	0	0	0	0	542	497	
6	0	0	0	0	531	497	
7	0	0	0	0	521	497	
8	0	0	0	0	515	496	
9	0	0	0	0	512	496	
10	0	0	0	0	510	496	
11	0	0	0	0	512	497	
12	0	0	0	0	514	496	
13	0	0	0	0	517	497	
14	0	0	0	0	517	496	
15	0	0	0	0	518	497	
0	0	0	0	0	518	496	
1	0	0	0	0	518	496	
2	0	0	0	0	519	496	
3	0	0	0	0	521	496	
4	0	0	0	0	524	496	
5	0	0	0	0	523	496	
6	0	0	0	0	524	496	
7	0	0	0	0	524	496	
8	0	0	0	0	524	496	
9	0	0	0	0	524	496	
10	0	0	0	0	523	496	
11	0	0	0	0	525	496	
12	0	0	0	0	528	496	
13	0	0	0	0	530	496	
14	0	0	0	0	532	495	
15	0	0	0	0	532	495	
0	0	0	0	0	531	495	
1	0	0	0	0	531	495	
2	0	0	0	0	529	495	
3	0	0	0	0	529	495	
4	0	0	0	0	530	495	
5	0	0	0	0	530	495	
6	0	0	0	0	529	495	
7	0	0	0	0	527	495	
8	0	0	0	0	526	495	
9	0	0	0	0	524	494	
10	0	0	0	0	523	495	
11	0	0	0	0	522	495	
12	0	0	0	0	524	495	
13	0	0	0	0	525	494	
14	0	0	0	0	525	495	
15	0	0	0	0	526	494	
0	0	0	0	0	527	494	
1	0	0	0	0	527	494	
2	0	0	0	0	527	494	
3	0	0	0	0	527	494	
4	0	0	0	0	525	494	
5	0	0	0	0	523	494	
6	0	0	0	0	521	493	
7	0	0	0	0	520	494	
8	0	0	0	0	521	494	
9	0	0	0	0	522	493	
10	0	0	0	0	525	494	
11	0	0	0	0	525	494	
12	0	0	0	0	525	493	
13	0	0	0	0	524	493	
14	0	0	0	0	523	493	
15	0	0	0	0	521	493	
0	0	0	0	0	519	493	
1	0	0	0	0	517	493	
2	0	0	0	0	516	493	
3	0	0	0	0	516	493	
4	0	0	0	0	516	492	
5	0	0	0	0	515	492	
6	0	0	0	0	514	493	
7	0	0	0	0	512	492	
8	0	0	0	0	511	492	
9	0	0	0	0	510	492	
10	0	0	0	0	510	492	
11	0	0	0	0	512	492	
12	0	0	0	0	515	492	
13	0	0	0	0	519	493	
14	0	0	0	0	521	492	
15	0	0	0	0	523	492	
0	0	0	0	0	522	492	
1	0	0	0	0	519	492	
2	0	0	0	0	514	492	
3	0	0	0	0	507	492	
4	0	0	0	0	496	492	
5	0	0	0	0	487	492	
6	0	0	0	0	481	492	
7	0	0	0	0	477	492	
8	0	0	0	0	477	492	
9	0	0	0	0	480	492	
10	0	0	0	0	485	491	
11	0	0	0	0	491	491	
12	0	0	0	0	496	491	
13	0	0	0	0	501	491	
14	0	0	0	0	503	491	
15	0	0	0	0	502	491	
0	0	0	0	0	503	491	
1	0	0	0	0	504	491	
2	0	0	0	0	505	491	
3	0	0	0	0	507	491	
4	0	0	0	0	508	491	
5	0	0	0	0	508	491	
6	0	0	0	0	508	491	
7	0	0	0	0	510	491	
8	0	0	0	0	512	491	
9	0	0	0	0	515	490	
10	0	0	0	0	516	491	
11	0	0	0	0	518	490	
12	0	0	0	0	520	490	
13	0	0	0	0	520	490	
14	0	0	0	0	519	490	
15	0	0	0	0	516	490	
0	0	0	0	0	513	490	
1	0	0	0	0	510	490	
2	0	0	0	0	508	490	
3	0	0	0	0	508	490	
4	0	0	0	0	509	490	
5	0	0	0	0	512	489	
6	0	0	0	0	517	490	
7	0	0	0	0	519	489	
8	0	0	0	0	519	489	
9	0	0	0	0	519	490	
10	0	0	0	0	519	489	
11	0	0	0	0	518	490	
12	0	0	0	0	516	490	
13	0	0	0	0	516	489	
14	0	0	0	0	515	489	
15	0	0	0	0	515	489	
0	0	0	0	0	514	489	
1	0	0	0	0	513	489	
2	0	0	0	0	514	489	
3	0	0	0	0	513	489	
4	0	0	0	0	513	489	
5	0	0	0	0	511	489	
6	0	0	0	0	507	489	
7	0	0	0	0	503	489	
8	0	0	0	0	502	489	
9	0	0	0	0	502	489	
10	0	0	0	0	504	488	
11	0	0	0	0	509	489	
12	0	0	0	0	512	488	
13	0	0	0	0	516	489	
14	0	0	0	0	518	489	
15	0	0	0	0	519	488	
0	0	0	0	0	518	488	
1	0	0	0	0	516	489	
2	0	0	0	0	514	488	
3	0	0	0	0	508	488	
4	0	0	0	0	502	488	
5	0	0	0	0	495	488	
6	0	0	0	0	491	488	
7	0	0	0	0	488	488	
8	0	0	0	0	487	488	
9	0	0	0	0	489	488	
10	0	0	0	0	490	488	
11	0	0	0	0	492	488	
12	0	0	0	0	493	488	
13	0	0	0	0	496	488	
14	0	0	0	0	499	488	
15	0	0	0	0	503	487	
0	0	0	0	0	508	488	
1	0	0	0	0	513	488	
2	0	0	0	0	517	488	
3	0	0	0	0	517	488	
4	0	0	0	0	514	487	
5	0	0	0	0	510	488	
6	0	0	0	0	506	487	
7	0	0	0	0	503	487	
8	0	0	0	0	502	487	
9	0	0	0	0	503	487	
10	0	0	0	0	506	487	
11	0	0	0	0	511	488	
12	0	0	0	0	517	487	
13	0	0	0	0	522	487	
14	0	0	0	0	524	487	
15	0	0	0	0	526	487	
0	0	0	0	0	527	487	
1	0	0	0	0	527	487	
2	0	0	0	0	528	487	
3	0	0	0	0	528	487	
4	0	0	0	0	528	487	
5	0	0	0	0	527	487	
6	0	0	0	0	526	487	
7	0	0	0	0	523	487	
8	0	0	0	0	521	487	
9	0	0	0	0	520	487	
10	0	0	0	0	520	487	
11	0	0	0	0	520	487	
12	0	0	0	0	520	487	
13	0	0	0	0	520	487	
14	0	0	0	0	520	487	
15	0	0	0	0	519	487	
0	0	0	0	0	519	487	
1	0	0	0	0	517	487	
2	0	0	0	0	515	487	
3	0	0	0	0	512	487	
4	0	0	0	0	509	487	
5	0	0	0	0	506	487	
6	0	0	0	0	504	487	
7	0	0	0	0	503	487	
8	0	0	0	0	503	487	
9	0	0	0	0	504	487	
10	0	0	0	0	503	487	
11	0	0	0	0	504	487	
12	0	0	0	0	504	487	
13	0	0	0	0	503	487	
14	0	0	0	0	504	487	
15	0	0	0	0	503	487	
0	0	0	0	0	503	487	
1	0	0	0	0	503	487	
2	0	0	0	0	504	487	
3	0	0	0	0	503	487	
4	0	0	0	0	502	487	
5	0	0	0	0	501	487	
6	0	0	0	0	500	487	
7	0	0	0	0	499	487	
8	0	0	0	0	497	487	
9	0	0	0	0	496	487	
10	0	0	0	0	494	487	
11	0	0	0	0	489	487	
12	0	0	0	0	485	487	
13	0	0	0	0	483	487	
14	0	0	0	0	484	487	
15	0	0	0	0	486	487	
0	0	0	0	0	487	487	
1	0	0	0	0	486	487	
2	0	0	0	0	485	487	
3	0	0	0	0	482	487	
4	0	0	0	0	481	487	
5	0	0	0	0	479	487	
6	0	0	0	0	475	487	
7	0	0	0	0	471	487	
8	0	0	0	0	470	487	
9	0	0	0	0	472	487	
10	0	0	0	0	476	487	
11	0	0	0	0	480	487	
12	0	0	0	0	485	487	
13	0	0	0	0	492	487	
14	0	0	0	0	502	487	
15	0	0	0	0	516	487	
0	0	0	0	0	529	487	
1	0	0	0	0	538	487	
2	0	0	0	0	538	487	
3	0	0	0	0	536	486	
4	0	0	0	0	530	487	
5	0	0	0	0	526	487	
6	0	0	0	0	523	487	
7	0	0	0	0	520	486	
8	0	0	0	0	518	487	
9	0	0	0	0	515	487	
10	0	0	0	0	511	487	
11	0	0	0	0	508	487	
12	0	0	0	0	506	487	
13	0	0	0	0	506	487	
14	0	0	0	0	507	487	
15	0	0	0	0	508	486	
0	0	0	0	0	508	487	
1	0	0	0	0	506	487	
2	0	0	0	0	504	486	
3	0	0	0	0	502	487	
4	0	0	0	0	503	486	
5	0	0	0	0	504	487	
6	0	0	0	0	507	486	
7	0	0	0	0	510	486	
8	0	0	0	0	513	486	
9	0	0	0	0	514	487	
10	0	0	0	0	516	486	
11	0	0	0	0	517	486	
12	0	0	0	0	518	487	
13	0	0	0	0	519	486	
14	0	0	0	0	521	487	
15	0	0	0	0	523	486	
0	0	0	0	0	525	487	
1	0	0	0	0	528	486	
2	0	0	0	0	530	486	
3	0	0	0	0	531	487	
4	0	0	0	0	531	487	
5	0	0	0	0	529	487	
6	0	0	0	0	527	487	
7	0	0	0	0	522	486	
8	0	0	0	0	519	486	
9	0	0	0	0	519	486	
10	0	0	0	0	519	487	
11	0	0	0	0	519	487	
12	0	0	0	0	518	487	
13	0	0	0	0	516	486	
14	0	0	0	0	513	487	
15	0	0	0	0	511	486	
0	0	0	0	0	510	486	
1	0	0	0	0	510	486	
2	0	0	0	0	510	487	
3	0	0	0	0	512	487	
4	0	0	0	0	513	486	
5	0	0	0	0	514	487	
6	0	0	0	0	514	486	
7	0	0	0	0	514	486	
8	0	0	0	0	512	486	
9	0	0	0	0	510	486	
10	0	0	0	0	508	486	
11	0	0	0	0	507	486	
12	0	0	0	0	505	486	
13	0	0	0	0	505	486	
14	0	0	0	0	506	486	
15	0	0	0	0	509	487	
0	0	0	0	0	512	486	
1	0	0	0	0	516	486	
2	0	0	0	0	519	486	
3	0	0	0	0	520	486	
4	0	0	0	0	521	486	
5	0	0	0	0	523	486	
6	0	0	0	0	522	486	
7	0	0	0	0	522	486	
8	0	0	0	0	521	486	
9	0	0	0	0	518	486	
10	0	0	0	0	514	486	
11	0	0	0	0	511	486	
12	0	0	0	0	509	486	
13	0	0	0	0	505	486	
14	0	0	0	0	503	486	
15	0	0	0	0	502	485	
0	0	0	0	0	501	486	
1	0	0	0	0	502	486	
2	0	0	0	0	502	486	
3	0	0	0	0	504	486	
4	0	0	0	0	505	485	
5	0	0	0	0	508	486	
6	0	0	0	0	511	486	
7	0	0	0	0	512	485	
8	0	0	0	0	513	486	
9	0	0	0	0	514	485	
10	0	0	0	0	515	485	
11	0	0	0	0	519	486	
12	0	0	0	0	524	486	
13	0	0	0	0	531	486	
14	0	0	0	0	537	485	
15	0	0	0	0	543	486	
0	0	0	0	0	545	486	
1	0	0	0	0	543	485	
2	0	0	0	0	536	485	
3	0	0	0	0	523	485	
4	0	0	0	0	511	485	
5	0	0	0	0	502	485	
6	0	0	0	0	496	485	
7	0	0	0	0	496	485	
8	0	0	0	0	499	486	
9	0	0	0	0	502	485	
10	0	0	0	0	504	485	
11	0	0	0	0	504	485	
12	0	0	0	0	503	486	
13	0	0	0	0	500	485	
14	0	0	0	0	496	485	
15	0	0	0	0	490	485	
0	0	0	0	0	483	485	
1	0	0	0	0	478	486	
2	0	0	0	0	470	485	
3	0	0	0	0	460	485	
4	0	0	0	0	448	485	
5	0	0	0	0	436	485	
6	0	0	0	0	422	485	
7	0	0	0	0	409	485	
8	0	0	0	0	399	485	
9	0	0	0	0	395	486	
10	0	0	0	0	394	485	
11	0	0	0	0	396	485	
12	0	0	0	0	400	485	
13	0	0	0	0	403	485	
14	0	0	0	0	408	485	
15	0	0	0	0	412	485	
0	0	0	0	0	411	485	
1	0	0	0	0	410	486	
2	0	0	0	0	411	486	
3	0	0	0	0	414	486	
4	0	0	0	0	419	485	
5	0	0	0	0	428	485	
6	0	0	0	0	441	486	
7	0	0	0	0	460	485	
8	0	0	0	0	480	485	
9	0	0	0	0	502	486	
10	0	0	0	0	523	486	
11	0	0	0	0	542	486	
12	0	0	0	0	561	486	
13	0	0	0	0	578	486	
14	0	0	0	0	590	486	
15	0	0	0	0	600	485	
0	0	0	0	0	608	486	
1	0	0	0	0	613	486	
2	0	0	0	0	616	486	
3	0	0	0	0	618	486	
4	0	0	0	0	618	486	
5	0	0	0	0	616	486	
6	0	0	0	0	611	486	
7	0	0	0	0	602	486	
8	0	0	0	0	592	486	
9	0	0	0	0	582	486	
10	0	0	0	0	572	486	
11	0	0	0	0	567	486	
12	0	0	0	0	565	486	
13	0	0	0	0	564	486	
14	0	0	0	0	566	486	
15	0	0	0	0	570	486	
0	0	0	0	0	573	486	
1	0	0	0	0	576	486	
2	0	0	0	0	579	486	
3	0	0	0	0	580	487	
4	0	0	0	0	580	486	
5	0	0	0	0	578	487	
6	0	0	0	0	575	487	
7	0	0	0	0	568	486	
8	0	0	0	0	560	487	
9	0	0	0	0	553	486	
10	0	0	0	0	547	486	
11	0	0	0	0	539	487	
12	0	0	0	0	531	487	
13	0	0	0	0	523	487	
14	0	0	0	0	517	487	
15	0	0	0	0	513	486	
0	0	0	0	0	512	487	
1	0	0	0	0	514	487	
2	0	0	0	0	515	487	
3	0	0	0	0	515	487	
4	0	0	0	0	515	487	
5	0	0	0	0	514	487	
6	0	0	0	0	512	487	
7	0	0	0	0	511	487	
8	0	0	0	0	511	487	
9	0	0	0	0	510	487	
10	0	0	0	0	510	487	
11	0	0	0	0	509	487	
12	0	0	0	0	508	487	
13	0	0	0	0	507	487	
14	0	0	0	0	507	487	
15	0	0	0	0	506	487	
0	0	0	0	0	505	487	
1	0	0	0	0	504	487	
2	0	0	0	0	504	487	
3	0	0	0	0	504	487	
4	0	0	0	0	504	487	
5	0	0	0	0	504	487	
6	0	0	0	0	505	487	
7	0	0	0	0	505	487	
8	0	0	0	0	505	487	
9	0	0	0	0	503	487	
10	0	0	0	0	498	488	
11	0	0	0	0	494	487	
12	0	0	0	0	493	488	
13	0	0	0	0	494	487	
14	0	0	0	0	497	488	
15	0	0	0	0	500	488	
0	0	0	0	0	502	488	
1	0	0	0	0	502	488	
2	0	0	0	0	500	488	
3	0	0	0	0	494	488	
4	0	0	0	0	489	488	
5	0	0	0	0	486	488	
6	0	0	0	0	482	488	
7	0	0	0	0	478	488	
8	0	0	0	0	475	488	
9	0	0	0	0	476	489	
10	0	0	0	0	478	489	
11	0	0	0	0	481	489	
12	0	0	0	0	486	489	
13	0	0	0	0	488	489	
14	0	0	0	0	490	489	
15	0	0	0	0	490	489	
0	0	0	0	0	489	489	
1	0	0	0	0	487	489	
2	0	0	0	0	486	489	
3	0	0	0	0	487	489	
4	0	0	0	0	491	489	
5	0	0	0	0	495	489	
6	0	0	0	0	495	489	
7	0	0	0	0	492	489	
8	0	0	0	0	488	489	
9	0	0	0	0	484	490	
10	0	0	0	0	480	489	
11	0	0	0	0	476	489	
12	0	0	0	0	475	489	
13	0	0	0	0	475	490	
14	0	0	0	0	479	490	
15	0	0	0	0	485	489	
0	0	0	0	0	493	490	
1	0	0	0	0	501	490	
2	0	0	0	0	508	490	
3	0	0	0	0	512	490	
4	0	0	0	0	513	490	
5	0	0	0	0	513	490	
6	0	0	0	0	512	490	
7	0	0	0	0	511	490	
8	0	0	0	0	509	490	
9	0	0	0	0	508	491	
10	0	0	0	0	507	490	
11	0	0	0	0	505	490	
12	0	0	0	0	506	490	
13	0	0	0	0	505	491	
14	0	0	0	0	504	490	
15	0	0	0	0	503	490	
0	0	0	0	0	502	491	
1	0	0	0	0	500	490	
2	0	0	0	0	498	491	
3	0	0	0	0	495	490	
4	0	0	0	0	491	491	
5	0	0	0	0	489	491	
6	0	0	0	0	489	490	
7	0	0	0	0	491	490	
8	0	0	0	0	492	490	
9	0	0	0	0	494	491	
10	0	0	0	0	494	491	
11	0	0	0	0	492	490	
12	0	0	0	0	491	491	
13	0	0	0	0	489	491	
14	0	0	0	0	487	491	
15	0	0	0	0	486	490	
0	0	0	0	0	488	491	
1	0	0	0	0	494	491	
2	0	0	0	0	499	491	
3	0	0	0	0	504	490	
4	0	0	0	0	509	491	
5	0	0	0	0	511	491	
6	0	0	0	0	509	491	
7	0	0	0	0	503	490	
8	0	0	0	0	498	491	
9	0	0	0	0	495	491	
10	0	0	0	0	495	491	
11	0	0	0	0	494	491	
12	0	0	0	0	493	491	
13	0	0	0	0	493	491	
14	0	0	0	0	493	491	
15	0	0	0	0	493	491	
0	0	0	0	0	494	491	
1	0	0	0	0	494	491	
2	0	0	0	0	494	491	
3	0	0	0	0	493	491	
4	0	0	0	0	492	491	
5	0	0	0	0	488	491	
6	0	0	0	0	483	491	
7	0	0	0	0	479	491	
8	0	0	0	0	475	491	
9	0	0	0	0	473	490	
10	0	0	0	0	474	490	
11	0	0	0	0	476	490	
12	0	0	0	0	479	491	
13	0	0	0	0	482	491	
14	0	0	0	0	487	491	
15	0	0	0	0	490	491	
0	0	0	0	0	492	491	
1	0	0	0	0	493	491	
2	0	0	0	0	493	491	
3	0	0	0	0	492	491	
4	0	0	0	0	492	491	
5	0	0	0	0	491	491	
6	0	0	0	0	490	491	
7	0	0	0	0	487	490	
8	0	0	0	0	482	491	
9	0	0	0	0	479	491	
10	0	0	0	0	474	491	
11	0	0	0	0	470	491	
12	0	0	0	0	468	491	
13	0	0	0	0	470	491	
14	0	0	0	0	475	491	
15	0	0	0	0	481	491	
0	0	0	0	0	485	491	
1	0	0	0	0	487	491	
2	0	0	0	0	487	491	
3	0	0	0	0	488	491	
4	0	0	0	0	488	491	
5	0	0	0	0	490	491	
6	0	0	0	0	492	491	
7	0	0	0	0	495	491	
8	0	0	0	0	496	490	
9	0	0	0	0	495	491	
10	0	0	0	0	491	491	
11	0	0	0	0	487	490	
12	0	0	0	0	486	490	
13	0	0	0	0	485	491	
14	0	0	0	0	483	491	
15	0	0	0	0	481	491	
0	0	0	0	0	480	490	
1	0	0	0	0	483	490	
2	0	0	0	0	487	490	
3	0	0	0	0	491	490	
4	0	0	0	0	494	491	
5	0	0	0	0	496	490	
6	0	0	0	0	498	490	
7	0	0	0	0	498	491	
8	0	0	0	0	499	491	
9	0	0	0	0	498	490	
10	0	0	0	0	496	490	
11	0	0	0	0	495	491	
12	0	0	0	0	494	490	
13	0	0	0	0	493	490	
14	0	0	0	0	492	490	
15	0	0	0	0	491	491	
0	0	0	0	0	490	490	
1	0	0	0	0	488	491	
2	0	0	0	0	487	491	
3	0	0	0	0	485	490	
4	0	0	0	0	483	490	
5	0	0	0	0	484	490	
6	0	0	0	0	485	490	
7	0	0	0	0	486	491	
8	0	0	0	0	489	490	
9	0	0	0	0	494	490	
10	0	0	0	0	499	490	
11	0	0	0	0	503	490	
12	0	0	0	0	504	490	
13	0	0	0	0	504	490	
14	0	0	0	0	502	490	
15	0	0	0	0	499	490	
0	0	0	0	0	497	490	
1	0	0	0	0	497	490	
2	0	0	0	0	498	490	
3	0	0	0	0	499	490	
4	0	0	0	0	501	490	
5	0	0	0	0	503	490	
6	0	0	0	0	503	490	
7	0	0	0	0	504	490	
8	0	0	0	0	504	490	
9	0	0	0	0	502	490	
10	0	0	0	0	503	490	
11	0	0	0	0	508	489	
12	0	0	0	0	515	490	
13	0	0	0	0	522	489	
14	0	0	0	0	527	490	
15	0	0	0	0	532	490	
0	0	0	0	0	538	490	
1	0	0	0	0	540	490	
2	0	0	0	0	541	489	
3	0	0	0	0	542	490	
4	0	0	0	0	544	490	
5	0	0	0	0	544	489	
6	0	0	0	0	540	490	
7	0	0	0	0	536	489	
8	0	0	0	0	533	489	
9	0	0	0	0	530	490	
10	0	0	0	0	528	489	
11	0	0	0	0	531	489	
12	0	0	0	0	537	489	
13	0	0	0	0	543	489	
14	0	0	0	0	549	489	
15	0	0	0	0	554	489	
0	0	0	0	0	556	489	
1	0	0	0	0	556	489	
2	0	0	0	0	555	489	
3	0	0	0	0	552	489	
4	0	0	0	0	548	489	
5	0	0	0	0	545	489	
6	0	0	0	0	543	489	
7	0	0	0	0	542	489	
8	0	0	0	0	543	489	
9	0	0	0	0	543	489	
10	0	0	0	0	543	489	
11	0	0	0	0	545	489	
12	0	0	0	0	545	489	
13	0	0	0	0	547	489	
14	0	0	0	0	548	489	
15	0	0	0	0	551	489	
0	0	0	0	0	553	489	
1	0	0	0	0	556	489	
2	0	0	0	0	557	489	
3	0	0	0	0	557	489	
4	0	0	0	0	557	489	
5	0	0	0	0	556	489	
6	0	0	0	0	555	489	
7	0	0	0	0	551	489	
8	0	0	0	0	549	489	
9	0	0	0	0	547	489	
10	0	0	0	0	546	489	
11	0	0	0	0	544	489	
12	0	0	0	0	544	489	
13	0	0	0	0	543	489	
14	0	0	0	0	543	489	
15	0	0	0	0	543	488	
0	0	0	0	0	543	489	
1	0	0	0	0	543	489	
2	0	0	0	0	542	489	
3	0	0	0	0	540	489	
4	0	0	0	0	536	489	
5	0	0	0	0	531	489	
6	0	0	0	0	527	489	
7	0	0	0	0	526	489	
8	0	0	0	0	526	489	
9	0	0	0	0	526	489	
10	0	0	0	0	527	489	
11	0	0	0	0	528	489	
12	0	0	0	0	532	488	
13	0	0	0	0	536	488	
14	0	0	0	0	541	489	
15	0	0	0	0	545	488	
0	0	0	0	0	550	489	
1	0	0	0	0	552	488	
2	0	0	0	0	551	488	
3	0	0	0	0	548	489	
4	0	0	0	0	542	489	
5	0	0	0	0	536	488	
6	0	0	0	0	529	489	
7	0	0	0	0	524	488	
8	0	0	0	0	521	489	
9	0	0	0	0	522	489	
10	0	0	0	0	527	489	
11	0	0	0	0	530	489	
12	0	0	0	0	531	489	
13	0	0	0	0	531	489	
14	0	0	0	0	530	489	
15	0	0	0	0	531	488	
0	0	0	0	0	530	488	
1	0	0	0	0	529	489	
2	0	0	0	0	525	489	
3	0	0	0	0	520	489	
4	0	0	0	0	516	489	
5	0	0	0	0	512	489	
6	0	0	0	0	511	488	
7	0	0	0	0	512	489	
8	0	0	0	0	515	488	
9	0	0	0	0	521	488	
10	0	0	0	0	524	489	
11	0	0	0	0	527	488	
12	0	0	0	0	529	488	
13	0	0	0	0	532	489	
14	0	0	0	0	536	488	
15	0	0	0	0	540	488	
0	0	0	0	0	542	489	
1	0	0	0	0	540	488	
2	0	0	0	0	536	488	
3	0	0	0	0	534	489	
4	0	0	0	0	533	488	
5	0	0	0	0	533	489	
6	0	0	0	0	534	489	
7	0	0	0	0	535	489	
8	0	0	0	0	535	489	
9	0	0	0	0	534	489	
10	0	0	0	0	531	489	
11	0	0	0	0	530	489	
12	0	0	0	0	530	488	
13	0	0	0	0	528	489	
14	0	0	0	0	526	489	
15	0	0	0	0	523	489	
0	0	0	0	0	521	489	
1	0	0	0	0	520	489	
2	0	0	0	0	521	489	
3	0	0	0	0	524	489	
4	0	0	0	0	527	489	
5	0	0	0	0	531	489	
6	0	0	0	0	534	489	
7	0	0	0	0	535	489	
8	0	0	0	0	535	489	
9	0	0	0	0	532	488	
10	0	0	0	0	527	489	
11	0	0	0	0	523	489	
12	0	0	0	0	518	489	
13	0	0	0	0	514	489	
14	0	0	0	0	513	489	
15	0	0	0	0	513	489	
0	0	0	0	0	513	489	
1	0	0	0	0	513	489	
2	0	0	0	0	512	489	
3	0	0	0	0	511	489	
4	0	0	0	0	509	489	
5	0	0	0	0	509	489	
6	0	0	0	0	510	489	
7	0	0	0	0	512	489	
8	0	0	0	0	515	489	
9	0	0	0	0	518	489	
10	0	0	0	0	519	489	
11	0	0	0	0	521	489	
12	0	0	0	0	520	489	
13	0	0	0	0	520	489	
14	0	0	0	0	519	489	
15	0	0	0	0	517	489	
0	0	0	0	0	514	489	
1	0	0	0	0	509	489	
2	0	0	0	0	505	490	
3	0	0	0	0	504	489	
4	0	0	0	0	506	489	
5	0	0	0	0	507	489	
6	0	0	0	0	504	490	
7	0	0	0	0	499	489	
8	0	0	0	0	492	490	
9	0	0	0	0	484	489	
10	0	0	0	0	480	490	
11	0	0	0	0	478	490	
12	0	0	0	0	480	490	
13	0	0	0	0	486	490	
14	0	0	0	0	492	490	
15	0	0	0	0	500	490	
0	0	0	0	0	510	490	
1	0	0	0	0	520	490	
2	0	0	0	0	529	490	
3	0	0	0	0	535	489	
4	0	0	0	0	538	490	
5	0	0	0	0	540	490	
6	0	0	0	0	538	490	
7	0	0	0	0	535	490	
8	0	0	0	0	530	489	
9	0	0	0	0	527	490	
10	0	0	0	0	524	490	
11	0	0	0	0	521	490	
12	0	0	0	0	519	490	
13	0	0	0	0	519	490	
14	0	0	0	0	519	490	
15	0	0	0	0	519	490	
0	0	0	0	0	518	491	
1	0	0	0	0	519	490	
2	0	0	0	0	519	490	
3	0	0	0	0	520	491	
4	0	0	0	0	520	491	
5	0	0	0	0	519	490	
6	0	0	0	0	518	491	
7	0	0	0	0	518	491	
8	0	0	0	0	517	490	
9	0	0	0	0	516	490	
10	0	0	0	0	516	490	
11	0	0	0	0	516	490	
12	0	0	0	0	515	491	
13	0	0	0	0	512	491	
14	0	0	0	0	510	491	
15	0	0	0	0	511	491	
0	0	0	0	0	513	491	
1	0	0	0	0	515	491	
2	0	0	0	0	516	491	
3	0	0	0	0	518	491	
4	0	0	0	0	519	491	
5	0	0	0	0	520	492	
6	0	0	0	0	519	491	
7	0	0	0	0	519	491	
8	0	0	0	0	519	491	
9	0	0	0	0	520	491	
10	0	0	0	0	521	491	
11	0	0	0	0	521	491	
12	0	0	0	0	516	491	
13	0	0	0	0	509	492	
14	0	0	0	0	500	491	
15	0	0	0	0	492	491	
0	0	0	0	0	487	492	
1	0	0	0	0	487	492	
2	0	0	0	0	487	491	
3	0	0	0	0	491	492	
4	0	0	0	0	495	492	
5	0	0	0	0	497	492	
6	0	0	0	0	501	492	
7	0	0	0	0	504	492	
8	0	0	0	0	506	492	
9	0	0	0	0	507	492	
10	0	0	0	0	509	492	
11	0	0	0	0	510	492	
12	0	0	0	0	510	492	
13	0	0	0	0	512	492	
14	0	0	0	0	515	492	
15	0	0	0	0	518	492	
0	0	0	0	0	520	492	
1	0	0	0	0	521	492	
2	0	0	0	0	524	493	
3	0	0	0	0	526	493	
4	0	0	0	0	527	492	
5	0	0	0	0	529	493	
6	0	0	0	0	529	493	
7	0	0	0	0	530	493	
8	0	0	0	0	530	493	
9	0	0	0	0	531	493	
10	0	0	0	0	530	493	
11	0	0	0	0	528	493	
12	0	0	0	0	527	494	
13	0	0	0	0	528	494	
14	0	0	0	0	527	494	
15	0	0	0	0	524	494	
0	0	0	0	0	519	494	
1	0	0	0	0	515	494	
2	0	0	0	0	512	494	
3	0	0	0	0	512	494	
4	0	0	0	0	513	494	
5	0	0	0	0	512	494	
6	0	0	0	0	512	494	
7	0	0	0	0	513	494	
8	0	0	0	0	514	494	
9	0	0	0	0	514	495	
10	0	0	0	0	514	494	
11	0	0	0	0	513	494	
12	0	0	0	0	513	494	
13	0	0	0	0	512	495	
14	0	0	0	0	513	495	
15	0	0	0	0	513	495	
0	0	0	0	0	515	495	
1	0	0	0	0	517	495	
2	0	0	0	0	517	495	
3	0	0	0	0	518	495	
4	0	0	0	0	518	495	
5	0	0	0	0	517	495	
6	0	0	0	0	516	495	
7	0	0	0	0	512	496	
8	0	0	0	0	507	496	
9	0	0	0	0	502	496	
10	0	0	0	0	497	496	
11	0	0	0	0	489	496	
12	0	0	0	0	485	496	
13	0	0	0	0	484	496	
14	0	0	0	0	484	496	
15	0	0	0	0	485	496	
0	0	0	0	0	488	496	
1	0	0	0	0	491	496	
2	0	0	0	0	495	496	
3	0	0	0	0	500	496	
4	0	0	0	0	508	496	
5	0	0	0	0	517	496	
6	0	0	0	0	523	497	
7	0	0	0	0	525	497	
8	0	0	0	0	523	497	
9	0	0	0	0	518	497	
10	0	0	0	0	513	497	
11	0	0	0	0	505	497	
12	0	0	0	0	500	497	
13	0	0	0	0	496	497	
14	0	0	0	0	496	497	
15	0	0	0	0	500	497	
0	0	0	0	0	504	498	
1	0	0	0	0	508	498	
2	0	0	0	0	512	498	
3	0	0	0	0	512	498	
4	0	0	0	0	511	498	
5	0	0	0	0	510	498	
6	0	0	0	0	509	499	
7	0	0	0	0	512	498	
8	0	0	0	0	516	498	
9	0	0	0	0	520	499	
10	0	0	0	0	524	499	
11	0	0	0	0	524	499	
12	0	0	0	0	522	499	
13	0	0	0	0	519	499	
14	0	0	0	0	512	499	
15	0	0	0	0	504	499	
0	0	0	0	0	499	499	
1	0	0	0	0	498	499	
2	0	0	0	0	499	500	
3	0	0	0	0	500	499	
4	0	0	0	0	500	500	
5	0	0	0	0	499	499	
6	0	0	0	0	498	500	
7	0	0	0	0	496	500	
8	0	0	0	0	494	500	
9	0	0	0	0	493	500	
10	0	0	0	0	494	500	
11	0	0	0	0	494	500	
12	0	0	0	0	496	500	
13	0	0	0	0	497	500	
14	0	0	0	0	499	501	
15	0	0	0	0	500	500	
0	0	0	0	0	502	501	
1	0	0	0	0	503	501	
2	0	0	0	0	505	501	
3	0	0	0	0	505	502	
4	0	0	0	0	504	502	
5	0	0	0	0	504	501	
6	0	0	0	0	502	501	
7	0	0	0	0	500	502	
8	0	0	0	0	498	502	
9	0	0	0	0	497	502	
10	0	0	0	0	495	502	
11	0	0	0	0	493	502	
12	0	0	0	0	491	502	
13	0	0	0	0	490	502	
14	0	0	0	0	489	502	
15	0	0	0	0	488	502	
0	0	0	0	0	488	502	
1	0	0	0	0	489	503	
2	0	0	0	0	490	503	
3	0	0	0	0	492	502	
4	0	0	0	0	494	503	
5	0	0	0	0	497	503	
6	0	0	0	0	502	503	
7	0	0	0	0	505	503	
8	0	0	0	0	507	503	
9	0	0	0	0	509	503	
10	0	0	0	0	508	504	
11	0	0	0	0	505	503	
12	0	0	0	0	501	503	
13	0	0	0	0	498	504	
14	0	0	0	0	495	504	
15	0	0	0	0	495	504	
0	0	0	0	0	495	503	
1	0	0	0	0	494	504	
2	0	0	0	0	494	504	
3	0	0	0	0	493	504	
4	0	0	0	0	492	504	
5	0	0	0	0	490	504	
6	0	0	0	0	487	504	
7	0	0	0	0	485	504	
8	0	0	0	0	482	504	
9	0	0	0	0	480	504	
10	0	0	0	0	480	504	
11	0	0	0	0	483	504	
12	0	0	0	0	487	505	
13	0	0	0	0	492	504	
14	0	0	0	0	498	505	
15	0	0	0	0	504	505	
0	0	0	0	0	510	505	
1	0	0	0	0	515	505	
2	0	0	0	0	519	505	
3	0	0	0	0	520	505	
4	0	0	0	0	521	505	
5	0	0	0	0	524	505	
6	0	0	0	0	523	506	
7	0	0	0	0	523	505	
8	0	0	0	0	524	506	
9	0	0	0	0	527	506	
10	0	0	0	0	527	506	
11	0	0	0	0	527	506	
12	0	0	0	0	528	506	
13	0	0	0	0	527	506	
14	0	0	0	0	526	505	
15	0	0	0	0	526	506	
0	0	0	0	0	525	506	
1	0	0	0	0	524	507	
2	0	0	0	0	521	506	
3	0	0	0	0	517	506	
4	0	0	0	0	514	506	
5	0	0	0	0	512	506	
6	0	0	0	0	512	507	
7	0	0	0	0	513	507	
8	0	0	0	0	516	507	
9	0	0	0	0	524	507	
10	0	0	0	0	534	507	
11	0	0	0	0	543	507	
12	0	0	0	0	548	508	
13	0	0	0	0	551	508	
14	0	0	0	0	550	508	
15	0	0	0	0	545	508	
0	0	0	0	0	539	507	
1	0	0	0	0	533	507	
2	0	0	0	0	527	508	
3	0	0	0	0	524	508	
4	0	0	0	0	522	508	
5	0	0	0	0	519	508	
6	0	0	0	0	518	508	
7	0	0	0	0	517	508	
8	0	0	0	0	515	508	
9	0	0	0	0	515	508	
10	0	0	0	0	514	508	
11	0	0	0	0	513	508	
12	0	0	0	0	514	508	
13	0	0	0	0	515	509	
14	0	0	0	0	518	508	
15	0	0	0	0	520	509	
0	0	0	0	0	521	508	
1	0	0	0	0	519	509	
2	0	0	0	0	515	509	
3	0	0	0	0	512	509	
4	0	0	0	0	509	509	
5	0	0	0	0	508	509	
6	0	0	0	0	507	509	
7	0	0	0	0	507	509	
8	0	0	0	0	508	509	
9	0	0	0	0	507	509	
10	0	0	0	0	508	510	
11	0	0	0	0	508	510	
12	0	0	0	0	509	510	
13	0	0	0	0	509	510	
14	0	0	0	0	507	510	
15	0	0	0	0	506	510	
0	0	0	0	0	504	510	
1	0	0	0	0	501	510	
2	0	0	0	0	499	510	
3	0	0	0	0	498	510	
4	0	0	0	0	497	511	
5	0	0	0	0	498	510	
6	0	0	0	0	498	511	
7	0	0	0	0	498	511	
8	0	0	0	0	499	510	
9	0	0	0	0	502	511	
10	0	0	0	0	504	511	
11	0	0	0	0	507	511	
12	0	0	0	0	511	511	
13	0	0	0	0	514	511	
14	0	0	0	0	515	511	
15	0	0	0	0	515	511	
0	0	0	0	0	515	511	
1	0	0	0	0	514	511	
2	0	0	0	0	512	511	
3	0	0	0	0	510	512	
4	0	0	0	0	509	512	
5	0	0	0	0	508	512	
6	0	0	0	0	505	511	
7	0	0	0	0	502	511	
8	0	0	0	0	499	512	
9	0	0	0	0	495	512	
10	0	0	0	0	490	512	
11	0	0	0	0	485	512	
12	0	0	0	0	480	512	
13	0	0	0	0	474	512	
14	0	0	0	0	466	512	
15	0	0	0	0	457	513	
0	0	0	0	0	447	512	
1	0	0	0	0	437	513	
2	0	0	0	0	427	512	
3	0	0	0	0	419	513	
4	0	0	0	0	412	512	
5	0	0	0	0	411	512	
6	0	0	0	0	411	513	
7	0	0	0	0	412	513	
8	0	0	0	0	413	513	
9	0	0	0	0	417	513	
10	0	0	0	0	421	513	
11	0	0	0	0	425	512	
12	0	0	0	0	428	513	
13	0	0	0	0	429	513	
14	0	0	0	0	433	513	
15	0	0	0	0	439	513	
0	0	0	0	0	446	513	
1	0	0	0	0	455	513	
2	0	0	0	0	469	513	
3	0	0	0	0	486	513	
4	0	0	0	0	503	513	
5	0	0	0	0	521	514	
6	0	0	0	0	538	513	
7	0	0	0	0	553	514	
8	0	0	0	0	568	513	
9	0	0	0	0	581	514	
10	0	0	0	0	591	513	
11	0	0	0	0	598	514	
12	0	0	0	0	603	514	
13	0	0	0	0	607	514	
14	0	0	0	0	611	514	
15	0	0	0	0	613	514	
0	0	0	0	0	615	514	
1	0	0	0	0	615	515	
2	0	0	0	0	615	515	
3	0	0	0	0	614	515	
4	0	0	0	0	614	514	
5	0	0	0	0	613	514	
6	0	0	0	0	611	515	
7	0	0	0	0	607	515	
8	0	0	0	0	603	515	
9	0	0	0	0	597	515	
10	0	0	0	0	592	515	
11	0	0	0	0	590	515	
12	0	0	0	0	588	515	
13	0	0	0	0	588	515	
14	0	0	0	0	586	515	
15	0	0	0	0	580	515	
0	0	0	0	0	575	515	
1	0	0	0	0	569	515	
2	0	0	0	0	564	515	
3	0	0	0	0	557	515	
4	0	0	0	0	549	515	
5	0	0	0	0	540	515	
6	0	0	0	0	533	515	
7	0	0	0	0	523	515	
8	0	0	0	0	513	515	
9	0	0	0	0	506	515	
10	0	0	0	0	500	516	
11	0	0	0	0	497	515	
12	0	0	0	0	496	515	
13	0	0	0	0	494	515	
14	0	0	0	0	489	515	
15	0	0	0	0	486	516	
0	0	0	0	0	481	515	
1	0	0	0	0	477	515	
2	0	0	0	0	474	516	
3	0	0	0	0	472	516	
4	0	0	0	0	471	516	
5	0	0	0	0	470	516	
6	0	0	0	0	471	516	
7	0	0	0	0	473	516	
8	0	0	0	0	479	516	
9	0	0	0	0	484	516	
10	0	0	0	0	490	516	
11	0	0	0	0	497	516	
12	0	0	0	0	505	516	
13	0	0	0	0	513	516	
14	0	0	0	0	522	517	
15	0	0	0	0	528	516	
0	0	0	0	0	534	516	
1	0	0	0	0	536	516	
2	0	0	0	0	536	516	
3	0	0	0	0	534	517	
4	0	0	0	0	531	517	
5	0	0	0	0	528	517	
6	0	0	0	0	524	517	
7	0	0	0	0	520	517	
8	0	0	0	0	516	517	
9	0	0	0	0	512	517	
10	0	0	0	0	510	517	
11	0	0	0	0	508	517	
12	0	0	0	0	506	517	
13	0	0	0	0	505	518	
14	0	0	0	0	503	517	
15	0	0	0	0	502	517	
0	0	0	0	0	502	517	
1	0	0	0	0	504	518	
2	0	0	0	0	507	518	
3	0	0	0	0	511	518	
4	0	0	0	0	515	518	
5	0	0	0	0	519	518	
6	0	0	0	0	521	518	
7	0	0	0	0	519	518	
8	0	0	0	0	515	518	
9	0	0	0	0	508	518	
10	0	0	0	0	502	518	
11	0	0	0	0	495	518	
12	0	0	0	0	490	518	
13	0	0	0	0	487	518	
14	0	0	0	0	487	519	
15	0	0	0	0	488	518	
0	0	0	0	0	489	519	
1	0	0	0	0	490	518	
2	0	0	0	0	492	519	
3	0	0	0	0	492	518	
4	0	0	0	0	492	519	
5	0	0	0	0	491	519	
6	0	0	0	0	490	519	
7	0	0	0	0	491	519	
8	0	0	0	0	491	519	
9	0	0	0	0	492	519	
10	0	0	0	0	493	519	
11	0	0	0	0	493	519	
12	0	0	0	0	492	519	
13	0	0	0	0	492	519	
14	0	0	0	0	492	519	
15	0	0	0	0	492	519	
0	0	0	0	0	492	519	
1	0	0	0	0	494	519	
2	0	0	0	0	495	519	
3	0	0	0	0	497	519	
4	0	0	0	0	497	519	
5	0	0	0	0	496	519	
6	0	0	0	0	492	519	
7	0	0	0	0	487	519	
8	0	0	0	0	481	519	
9	0	0	0	0	478	519	
10	0	0	0	0	477	519	
11	0	0	0	0	477	519	
12	0	0	0	0	480	519	
13	0	0	0	0	483	519	
14	0	0	0	0	487	519	
15	0	0	0	0	489	519	
0	0	0	0	0	491	519	
1	0	0	0	0	493	519	
2	0	0	0	0	496	519	
3	0	0	0	0	497	519	
4	0	0	0	0	498	519	
5	0	0	0	0	497	519	
6	0	0	0	0	496	519	
7	0	0	0	0	493	519	
8	0	0	0	0	490	519	
9	0	0	0	0	485	519	
10	0	0	0	0	480	519	
11	0	0	0	0	478	519	
12	0	0	0	0	477	520	
13	0	0	0	0	478	519	
14	0	0	0	0	481	519	
15	0	0	0	0	484	519	
0	0	0	0	0	488	520	
1	0	0	0	0	497	519	
2	0	0	0	0	505	519	
3	0	0	0	0	512	519	
4	0	0	0	0	517	519	
5	0	0	0	0	521	519	
6	0	0	0	0	522	519	
7	0	0	0	0	521	520	
8	0	0	0	0	519	519	
9	0	0	0	0	519	520	
10	0	0	0	0	516	519	
11	0	0	0	0	513	519	
12	0	0	0	0	511	520	
13	0	0	0	0	509	519	
14	0	0	0	0	506	520	
15	0	0	0	0	505	519	
0	0	0	0	0	503	520	
1	0	0	0	0	503	519	
2	0	0	0	0	503	519	
3	0	0	0	0	504	520	
4	0	0	0	0	507	519	
5	0	0	0	0	508	520	
6	0	0	0	0	507	519	
7	0	0	0	0	505	520	
8	0	0	0	0	502	519	
9	0	0	0	0	497	520	
10	0	0	0	0	490	520	
11	0	0	0	0	483	520	
12	0	0	0	0	477	520	
13	0	0	0	0	474	520	
14	0	0	0	0	472	519	
15	0	0	0	0	471	520	
0	0	0	0	0	472	520	
1	0	0	0	0	474	520	
2	0	0	0	0	477	519	
3	0	0	0	0	482	520	
4	0	0	0	0	487	519	
5	0	0	0	0	491	520	
6	0	0	0	0	492	520	
7	0	0	0	0	491	520	
8	0	0	0	0	490	520	
9	0	0	0	0	490	520	
10	0	0	0	0	490	520	
11	0	0	0	0	490	520	
12	0	0	0	0	490	520	
13	0	0	0	0	488	520	
14	0	0	0	0	484	519	
15	0	0	0	0	482	520	
0	0	0	0	0	480	520	
1	0	0	0	0	480	520	
2	0	0	0	0	480	520	
3	0	0	0	0	479	520	
4	0	0	0	0	479	520	
5	0	0	0	0	479	520	
6	0	0	0	0	480	520	
7	0	0	0	0	481	520	
8	0	0	0	0	483	520	
9	0	0	0	0	485	520	
10	0	0	0	0	487	520	
11	0	0	0	0	488	520	
12	0	0	0	0	487	520	
13	0	0	0	0	486	520	
14	0	0	0	0	483	519	
15	0	0	0	0	479	520	
0	0	0	0	0	475	520	
1	0	0	0	0	472	520	
2	0	0	0	0	469	520	
3	0	0	0	0	464	520	
4	0	0	0	0	461	520	
5	0	0	0	0	459	520	
6	0	0	0	0	460	520	
7	0	0	0	0	465	520	
8	0	0	0	0	472	520	
9	0	0	0	0	481	520	
10	0	0	0	0	492	520	
11	0	0	0	0	501	520	
12	0	0	0	0	506	520	
13	0	0	0	0	510	520	
14	0	0	0	0	512	520	
15	0	0	0	0	512	520	
0	0	0	0	0	512	520	
1	0	0	0	0	512	520	
2	0	0	0	0	510	520	
3	0	0	0	0	507	520	
4	0	0	0	0	505	520	
5	0	0	0	0	504	520	
6	0	0	0	0	506	520	
7	0	0	0	0	508	520	
8	0	0	0	0	512	520	
9	0	0	0	0	514	520	
10	0	0	0	0	514	520	
11	0	0	0	0	512	520	
12	0	0	0	0	511	520	
13	0	0	0	0	512	520	
14	0	0	0	0	515	520	
15	0	0	0	0	518	520	
0	0	0	0	0	520	520	
1	0	0	0	0	523	520	
2	0	0	0	0	527	520	
3	0	0	0	0	531	520	
4	0	0	0	0	536	520	
5	0	0	0	0	541	520	
6	0	0	0	0	543	520	
7	0	0	0	0	539	520	
8	0	0	0	0	536	520	
9	0	0	0	0	534	520	
10	0	0	0	0	531	520	
11	0	0	0	0	530	520	
12	0	0	0	0	531	520	
13	0	0	0	0	531	520	
14	0	0	0	0	532	520	
15	0	0	0	0	531	520	
0	0	0	0	0	531	520	
1	0	0	0	0	530	520	
2	0	0	0	0	530	520	
3	0	0	0	0	530	520	
4	0	0	0	0	531	520	
5	0	0	0	0	532	520	
6	0	0	0	0	534	520	
7	0	0	0	0	535	520	
8	0	0	0	0	537	520	
9	0	0	0	0	540	520	
10	0	0	0	0	540	520	
11	0	0	0	0	541	520	
12	0	0	0	0	539	520	
13	0	0	0	0	536	520	
14	0	0	0	0	531	520	
15	0	0	0	0	526	520	
0	0	0	0	0	522	520	
1	0	0	0	0	518	520	
2	0	0	0	0	516	520	
3	0	0	0	0	515	520	
4	0	0	0	0	518	520	
5	0	0	0	0	521	520	
6	0	0	0	0	528	520	
7	0	0	0	0	536	520	
8	0	0	0	0	543	520	
9	0	0	0	0	548	520	
10	0	0	0	0	552	520	
11	0	0	0	0	551	520	
12	0	0	0	0	548	520	
13	0	0	0	0	544	520	
14	0	0	0	0	542	520	
15	0	0	0	0	542	520	
0	0	0	0	0	544	519	
1	0	0	0	0	547	520	
2	0	0	0	0	547	520	
3	0	0	0	0	547	520	
4	0	0	0	0	547	521	
5	0	0	0	0	545	521	
6	0	0	0	0	544	520	
7	0	0	0	0	544	520	
8	0	0	0	0	544	520	
9	0	0	0	0	544	521	
10	0	0	0	0	546	520	
11	0	0	0	0	547	520	
12	0	0	0	0	546	520	
13	0	0	0	0	544	520	
14	0	0	0	0	541	520	
15	0	0	0	0	539	521	
0	0	0	0	0	538	521	
1	0	0	0	0	535	520	
2	0	0	0	0	531	521	
3	0	0	0	0	531	521	
4	0	0	0	0	530	520	
5	0	0	0	0	530	520	
6	0	0	0	0	529	520	
7	0	0	0	0	527	520	
8	0	0	0	0	525	520	
9	0	0	0	0	523	520	
10	0	0	0	0	524	521	
11	0	0	0	0	524	521	
12	0	0	0	0	526	520	
13	0	0	0	0	527	520	
14	0	0	0	0	528	520	
15	0	0	0	0	526	521	
0	0	0	0	0	524	521	
1	0	0	0	0	525	521	
2	0	0	0	0	526	520	
